# --------------------                                                         
# Bandwidth: 0.05~40Hz                                                         
# Notch Filter: 50Hz ON                                                        
# Resolution: 24bit                                                            
# Sample Rate: 600SPS                                                          
# Start Time: 2026-04-12 00:17:14                                              
# Duration: 00:00:26 (total samples: 16164)                                    
# --------------------                                                         
4216239
4251234
4290411
4331441
4371548
4407721
4437113
4457441
4467001
4465166
4452562
4430995
4403251
4372729
4343120
4317920
4299917
4290760
4290576
4297725
4308981
4320127
4327000
4326341
4316441
4297636
4272119
4243365
4215428
4191857
4175163
4166574
4165740
4171033
4180343
4191336
4201730
4209582
4213560
4213040
4208067
4199398
4188269
4176324
4165448
4157488
4154203
4157207
4167821
4186808
4213861
4247424
4284601
4321238
4352651
4374502
4383722
4378979
4361203
4333361
4299806
4265174
4233606
4207854
4189061
4176995
4170419
4167829
4168076
4170546
4175089
4181758
4190428
4200484
4210590
4218725
4223045
4222419
4216912
4207983
4198229
4190766
4188240
4191863
4200931
4213022
4224577
4232010
4232983
4227286
4217226
4206996
4201703
4206053
4222907
4252232
4291139
4334650
4376660
4411512
4435033
4445191
4442096
4427633
4404623
4376054
4344265
4310907
4276919
4242806
4209309
4177420
4148420
4123526
4103608
4088849
4078490
4070749
4063335
4053841
4040257
4021719
3998949
3974024
3949945
3930084
3917446
3914061
3920394
3934948
3954565
3974951
3991602
4000967
4001193
3992623
3977671
3960339
3944893
3934430
3929842
3929598
3930167
3927397
3917944
3900552
3876968
3851515
3829963
3817848
3818689
3832762
3857136
3886356
3913856
3933963
3943353
3941495
3930315
3913492
3895387
3879663
3868637
3862980
3862310
3865725
3872632
3883541
3900278
3926196
3965625
4023440
4104174
4211223
4346287
4509020
4696876
4905537
5129076
5359935
5589396
5807675
6003834
6166032
6282015
6339841
6329224
6243032
6079051
5841215
5539956
5192131
4819476
4446168
4096154
3789913
3542106
3360262
3244636
3188955
3182564
3212818
3267143
3334769
3407560
3480094
3549124
3612781
3669721
3718662
3758457
3788502
3809193
3821853
3828797
3832901
3836804
3842344
3850084
3859361
3868843
3877065
3883305
3887818
3891790
3897227
3906087
3919454
3937004
3956914
3976209
3991317
3999084
3997522
3986567
3968117
3945606
3923060
3904317
3892153
3887851
3890919
3899572
3911313
3923687
3934728
3943470
3950025
3955426
3961362
3969584
3981482
3997457
4016812
4037932
4058465
4075859
4088096
4094235
4094494
4090195
4083390
4076061
4069593
4064496
4060067
4055085
4048809
4041488
4034709
4031423
4034961
4048043
4071771
4105062
4144511
4185380
4222739
4252718
4273334
4284916
4289748
4291170
4292447
4296069
4303320
4314295
4328397
4344887
4363094
4382598
4403359
4425475
4448918
4473663
4499709
4527184
4556374
4587677
4621117
4656215
4691946
4726713
4758530
4785717
4807035
4822277
4832423
4839376
4845425
4852814
4863427
4878572
4898866
4924282
4954157
4987364
5022049
5056005
5086901
5112553
5131273
5142077
5144697
5139767
5128427
5111735
5090544
5065240
5035906
5002560
4965696
4926494
4886720
4848435
4813347
4782262
4754623
4728541
4701112
4669179
4630062
4582246
4525649
4461737
4393010
4322533
4253220
4187485
4127116
4073528
4027760
3990545
3962418
3943450
3933047
3929734
3931045
3933953
3935155
3931457
3920643
3901643
3874913
3842263
3806567
3771280
3739583
3713990
3695915
3685470
3681529
3682085
3684722
3687044
3687126
3683885
3677130
3667697
3656999
3646951
3639712
3637179
3640637
3650568
3666421
3686461
3708307
3729102
3746102
3757152
3761051
3757593
3747367
3731549
3711772
3689743
3667323
3646386
3628592
3615365
3607511
3605069
3607278
3612806
3619959
3627615
3635579
3644701
3656759
3673526
3695751
3722510
3750823
3776001
3792652
3795934
3782853
3753335
3710454
3659587
3607685
3561799
3527954
3510097
3509697
3525712
3554933
3592693
3633479
3671739
3702406
3721614
3727143
3718734
3698077
3668481
3634265
3600089
3569883
3546638
3531930
3525829
3527357
3534815
3546180
3559424
3572834
3584827
3594016
3599552
3600992
3598771
3594095
3588483
3583662
3580929
3580826
3582986
3586321
3589572
3591912
3593384
3594925
3598141
3604475
3614588
3627776
3641761
3653183
3658699
3655979
3644613
3626268
3604561
3584264
3569722
3563773
3566995
3577616
3592074
3606172
3616099
3619471
3616045
3607336
3596328
3586375
3580328
3579822
3584935
3594465
3606438
3618602
3629247
3637539
3643400
3647288
3650015
3652182
3654137
3656170
3658537
3661768
3666678
3674032
3684108
3696289
3708759
3718871
3723788
3721408
3711308
3695163
3676678
3660662
3651722
3652910
3664514
3683744
3705254
3722292
3728508
3719514
3694160
3655014
3607679
3559431
3517671
3488284
3474320
3475486
3488633
3508543
3529065
3544740
3551541
3547502
3532755
3509223
3479966
3448306
3417426
3390035
3368508
3354705
3350114
3355660
3371585
3396858
3428716
3462713
3493109
3514048
3521001
3512146
3489307
3457785
3425596
3401625
3393091
3403613
3432376
3474227
3520847
3563108
3593309
3607003
3603751
3586882
3562006
3535368
3511998
3494782
3484342
3479155
3476857
3475149
3472754
3469848
3468302
3471700
3485253
3515341
3568694
3651649
3768811
3921874
4108589
4322331
4552459
4785219
5005691
5199666
5355428
5464825
5523653
5530974
5487705
5395606
5256796
5073667
4849827
4591155
4306883
4010291
3717633
3446462
3213245
3030639
2905713
2839100
2825405
2855062
2916227
2997003
3086861
3177314
3261906
3335935
3395981
3439958
3467370
3479719
3480630
3475455
3470418
3471217
3481667
3502646
3531622
3563265
3590957
3608650
3612420
3601406
3578120
3547638
3516487
3491332
3477009
3475744
3486685
3506423
3529843
3551607
3567343
3574909
3574810
3569747
3563711
3560563
3562754
3570661
3582459
3594924
3604669
3609494
3609091
3605447
3601936
3602303
3609172
3623301
3643097
3664996
3684639
3698050
3702590
3697443
3684033
3665540
3646363
3631301
3624487
3629010
3646176
3675235
3712999
3754783
3795089
3828608
3851476
3861884
3860411
3849843
3833985
3816923
3801901
3790769
3784106
3781916
3784182
3791566
3805306
3827014
3857795
3897695
3945104
3996833
4048764
4096524
4136365
4165851
4184053
4191588
4190265
4182528
4171221
4159298
4149610
4144451
4145390
4153304
4167910
4188102
4212439
4239440
4268188
4298678
4331306
4366795
4405371
4446323
4487722
4526670
4559832
4584148
4597613
4599863
4592329
4577892
4560452
4544141
4532463
4527790
4530822
4540761
4555285
4571051
4584267
4591243
4588993
4575555
4550360
4513713
4466739
4411177
4348851
4281768
4211923
4141007
4070570
4002162
3937055
3876527
3821632
3773251
3732031
3698397
3672255
3652881
3638798
3627642
3616464
3601975
3581395
3553142
3517103
3474946
3429974
3386212
3347507
3316624
3294762
3281447
3274817
3272688
3273204
3275304
3278837
3284485
3293135
3305092
3319634
3334831
3348033
3356425
3357717
3350653
3335434
3313706
3288188
3262007
3238011
3218260
3203836
3194879
3190743
3190431
3192922
3197571
3204018
3212011
3221547
3232524
3244571
3257017
3268895
3279178
3286797
3291100
3291640
3288123
3280476
3268912
3253610
3234841
3213040
3188921
3163856
3139867
3119661
3106055
3101690
3108528
3127126
3156130
3192453
3231554
3268256
3297798
3316450
3322346
3315799
3298862
3274927
3247707
3220483
3195748
3174889
3158443
3146483
3139401
3137987
3143381
3156562
3177642
3205361
3236709
3267059
3291089
3303819
3302082
3285513
3256848
3221403
3185801
3156244
3137219
3130279
3133834
3144068
3156274
3166292
3171657
3172035
3169055
3165554
3164184
3166721
3173429
3183141
3193866
3203395
3209995
3212809
3211976
3208190
3202369
3195231
3187035
3177701
3166830
3154080
3139673
3124493
3110206
3098870
3092400
3092117
3098418
3110236
3125483
3141478
3155522
3165861
3171934
3174427
3175142
3176213
3179393
3185427
3193800
3203123
3211602
3217766
3221002
3221605
3220563
3219125
3218298
3218399
3219353
3220809
3222330
3223849
3225936
3229285
3234477
3241485
3249561
3257250
3262751
3264498
3261738
3254544
3243730
3230773
3217086
3203809
3191555
3180182
3169149
3157722
3145389
3132051
3118131
3104651
3092835
3083928
3078635
3076984
3078141
3080550
3082394
3081884
3077933
3070507
3060548
3049730
3040223
3033717
3031085
3032130
3035857
3040838
3045800
3050230
3054364
3058972
3064746
3071966
3080031
3087188
3091196
3089946
3082106
3067817
3048817
3028100
3009151
2995220
2988662
2990458
3000046
3015634
3034605
3054072
3071364
3084465
3092250
3094517
3091856
3085367
3076842
3068783
3064627
3069007
3087842
3127943
3196180
3298608
3438927
3617366
3830258
4069949
4325164
4582037
4825532
5041125
5216038
5340024
5405941
5409797
5350782
5231114
5055611
4831538
4568469
4277871
3972652
3666744
3374348
3109226
2883593
2706919
2585032
2519216
2506115
2537918
2603238
2688757
2781054
2868310
2941850
2996951
3032771
3051771
3058574
3058734
3057542
3059307
3066977
3081969
3104271
3132511
3164405
3196865
3226513
3250325
3265528
3270517
3265197
3251077
3231111
3209388
3190394
3178003
3174805
3181613
3197381
3219728
3245558
3271674
3295484
3315305
3330139
3339697
3344146
3343868
3339347
3331623
3322100
3312609
3305207
3301816
3303654
3310606
3321409
3333805
3345003
3352315
3353796
3348799
3337813
3322461
3305251
3288921
3276181
3269375
3270375
3280147
3298806
3325608
3358712
3395547
3432849
3467233
3495722
3516200
3527746
3531134
3528521
3522948
3517706
3515737
3518908
3527863
3541969
3559957
3580361
3601866
3624055
3647363
3672522
3700329
3731109
3764166
3797650
3828947
3855246
3874123
3884285
3885952
3881044
3872875
3865505
3863090
3869129
3886147
3915120
3955510
4005196
4060613
4117388
4170921
4216911
4252216
4275601
4287983
4292245
4292642
4293671
4299096
4311119
4329735
4352939
4377473
4399626
4416423
4426450
4429903
4428042
4422838
4415835
4407405
4396737
4382121
4361624
4333872
4298625
4256970
4210977
4163146
4115493
4069013
4023789
3979159
3934337
3888966
3843268
3798168
3755016
3714924
3678199
3644190
3611462
3578176
3542817
3504610
3463819
3421761
3380323
3341568
3307328
3278811
3256346
3239509
3227315
3218222
3210513
3202617
3193253
3181592
3167517
3151769
3135624
3120511
3107751
3098128
3091728
3087672
3084405
3080216
3073781
3064572
3053183
3041241
3030837
3024123
3022824
3027717
3038439
3053629
3071241
3089050
3104950
3117309
3125154
3128116
3126445
3120845
3112590
3103224
3094360
3087626
3084316
3085071
3089949
3098362
3109158
3120640
3130788
3137754
3139985
3136491
3127141
3112758
3095090
3076600
3060131
3048236
3042370
3042799
3048443
3057208
3066431
3073612
3077189
3076801
3073354
3068464
3063895
3060863
3059664
3059603
3059444
3057943
3054424
3049268
3044022
3040987
3042642
3050710
3065496
3085695
3108308
3129443
3145317
3153186
3151980
3142725
3128183
3112158
3098525
3090076
3087843
3091132
3097861
3105189
3110469
3111938
3109241
3103125
3095188
3087247
3080725
3076431
3074490
3074511
3075871
3078002
3080421
3082714
3084458
3085250
3084745
3082689
3079130
3074690
3070507
3067878
3068148
3072256
3080390
3091992
3105797
3120036
3132661
3141676
3145554
3143356
3135032
3121388
3104187
3085893
3069314
3057040
3051178
3052842
3061822
3076672
3094842
3113273
3128999
3139704
3144054
3141988
3134316
3122500
3108202
3092847
3077445
3062645
3048962
3036981
3027606
3022028
3021354
3026327
3036957
3052362
3070863
3090223
3108174
3122856
3133206
3139197
3141799
3142499
3142899
3144211
3147144
3151611
3157019
3162802
3168693
3174841
3181994
3191187
3203380
3219200
3238322
3259624
3281251
3301026
3316706
3326532
3329509
3325580
3315772
3302003
3286501
3271604
3259197
3250279
3244770
3241397
3237987
3231992
3220989
3203206
3178144
3146729
3111247
3075015
3041922
3015500
2998178
2990869
2992672
3000862
3011720
3021448
3027028
3026969
3021629
3013078
3004396
2998908
2998953
3005411
3017389
3032665
3048378
3061655
3070325
3073377
3070667
3062619
3049705
3032337
3010888
2986019
2959016
2932033
2908048
2890199
2881004
2881613
2891461
2908356
2928808
2948917
2965464
2976495
2981590
2981931
2979672
2977036
2975866
2976985
2980044
2983891
2986862
2987238
2983663
2975874
2964872
2953037
2944606
2945362
2962058
3001693
3070414
3172629
3310239
3482101
3684378
3911018
4154262
4405097
4653685
4889602
5102145
5280421
5413772
5492461
5508639
5457287
5336809
5149755
4902935
4606991
4276210
3927512
3579308
3250346
2958061
2716840
2536734
2422552
2373108
2381506
2436456
2523761
2628323
2736185
2836056
2920156
2984484
3028444
3054047
3065015
3065816
3060991
3054532
3049456
3047626
3049478
3054237
3060369
3066064
3069798
3070754
3069117
3066081
3063512
3063470
3067828
3077465
3092060
3109963
3128529
3144749
3155869
3160118
3157271
3148704
3137151
3125987
3118409
3116651
3121441
3131945
3146156
3161340
3174884
3184973
3191049
3193924
3195411
3197890
3203662
3214224
3229978
3250094
3272561
3294776
3314027
3328040
3335397
3335702
3329808
3319392
3306622
3293766
3282918
3275683
3272755
3274243
3279894
3289035
3300882
3314704
3329904
3345990
3362416
3378665
3394197
3408608
3421787
3434006
3445894
3458489
3472933
3490145
3510550
3533876
3559207
3585242
3610595
3634279
3656018
3676237
3695901
3716177
3737879
3761219
3785615
3809884
3832701
3853074
3870485
3885427
3899299
3913996
3931430
3952956
3979169
4009795
4043814
4079887
4116593
4152650
4187094
4219234
4248369
4273898
4295334
4312121
4323984
4331211
4334686
4335865
4336488
4338143
4341693
4346876
4352265
4355432
4353489
4343906
4324917
4296028
4258219
4213826
4165601
4116295
4068075
4022068
3978352
3936122
3894193
3851454
3807286
3761706
3715312
3668995
3623712
3580144
3538270
3497458
3456731
3415123
3372123
3328055
3284117
3242192
3204402
3172740
3148550
3132218
3123165
3119989
3120887
3124146
3128187
3131741
3133884
3133892
3131052
3124757
3114794
3101439
3085421
3068149
3051421
3036990
3026221
3019749
3017315
3017869
3020003
3022257
3023444
3023006
3020970
3017851
3014338
3011005
3008210
3005951
3003728
3000807
2996572
2990631
2982983
2974250
2965710
2959016
2955729
2957132
2963717
2975134
2990414
3007959
3025757
3041890
3054732
3063378
3067636
3067930
3065018
3059849
3053220
3045468
3036642
3026424
3014435
3000802
2986370
2972695
2962033
2956834
2958993
2969376
2987268
3010361
3035205
3057767
3074335
3082270
3080563
3069908
3052407
3031243
3009862
2991511
2978854
2973674
2976630
2987224
3003965
3024403
3045582
3064407
3077857
3083837
3081491
3071456
3055907
3038120
3021893
3010806
3007573
3013423
3027845
3048583
3071996
3093766
3109825
3117248
3114977
3104001
3087253
3068840
3053104
3043539
3041715
3047113
3057303
3068968
3078695
3084165
3084765
3081445
3076388
3071996
3070083
3071333
3074830
3078785
3081161
3080425
3076116
3068963
3060774
3053748
3049873
3050300
3055096
3063160
3072897
3082669
3091281
3098272
3103785
3108092
3111299
3113059
3112422
3108169
3098955
3084158
3064254
3041130
3017776
2997702
2984276
2979835
2985092
2998931
3018600
3040582
3061122
3077113
3086399
3088107
3082594
3071080
3055290
3037126
3018429
3000893
2985968
2974768
2968125
2966575
2970298
2978839
2991166
3005581
3019987
3032071
3039760
3041727
3037818
3029473
3019535
3011706
3009554
3015622
3030661
3053264
3080075
3106598
3128295
3141751
3145355
3139748
3127334
3111738
3096746
3085393
3079641
3080169
3086845
3099242
3116781
3139043
3165373
3194850
3226183
3257251
3285643
3309068
3325757
3334802
3336519
3332206
3323678
3312908
3301402
3289843
3277944
3265012
3250265
3233219
3214102
3193970
3174339
3156721
3141975
3130032
3119914
3110209
3099424
3086515
3071475
3054998
3038154
3022195
3007914
2995567
2984937
2975677
2967784
2961533
2957561
2956504
2958724
2963999
2971499
2980097
2988704
2996637
3003805
3010522
3017134
3023682
3029740
3034345
3036387
3035168
3030705
3023923
3016367
3009760
3005397
3003546
3003260
3002636
2999646
2992832
2981695
2967075
2950883
2935398
2922729
2914143
2909821
2909016
2910490
2913013
2915906
2919182
2923306
2928700
2935478
2943005
2950230
2956585
2962864
2972013
2989650
3023430
3081855
3172859
3302078
3471335
3678141
3915898
4174647
4442098
4705039
4950461
5166428
5342438
5469329
5539303
5546071
5485057
5353893
5153323
4888234
4568693
4210126
3832648
3459505
3114441
2818723
2588058
2430439
2345619
2325719
2357510
2425252
2513312
2608451
2700841
2784014
2854184
2909551
2949437
2974223
2985634
2986850
2982263
2977112
2976290
2983193
2998785
3021274
3046701
3070161
3087236
3095111
3093301
3083664
3069887
3056347
3047050
3044744
3050334
3062798
3079626
3097146
3111608
3119995
3120528
3113341
3100230
3084388
3069816
3060347
3058794
3066519
3083084
3106420
3133426
3160775
3185508
3205771
3220813
3230737
3236297
3238346
3237290
3233097
3225592
3214646
3200633
3184696
3168835
3155593
3147714
3147464
3156142
3173793
3199176
3229787
3262242
3293118
3319262
3338707
3351005
3357217
3359776
3361815
3366433
3375792
3390529
3409668
3430940
3451503
3468773
3481183
3488707
3492625
3495025
3498002
3502984
3510458
3520166
3531341
3543324
3556196
3570921
3589033
3612076
3641017
3675732
3714871
3756113
3796615
3833710
3865513
3891165
3910960
3926268
3939092
3951765
3966484
3984877
4007523
4033893
4062347
4090577
4116224
4137490
4153781
4165957
4176025
4186525
4199688
4216771
4237396
4259568
4280192
4295841
4303763
4302695
4292895
4275875
4253887
4229323
4203907
4178395
4152600
4125663
4096301
4063222
4025418
3982314
3933767
3880121
3822108
3760718
3697197
3633070
3569874
3509110
3452334
3400874
3355846
3317983
3287506
3263898
3245785
3230993
3216681
3199941
3178522
3151291
3118517
3081960
3044284
3008411
2976876
2951446
2932752
2920493
2913931
2912336
2915120
2921902
2932220
2945007
2958378
2969825
2976785
2977267
2970560
2957529
2940354
2921763
2904348
2889756
2878322
2869166
2860950
2852564
2843754
2835359
2829161
2827180
2830866
2840436
2854789
2871673
2888251
2901989
2911165
2915167
2914377
2909932
2903292
2895631
2887751
2880049
2872658
2865704
2859313
2853584
2848757
2845058
2842607
2841479
2841683
2843156
2845745
2849322
2853659
2858351
2862988
2867396
2871651
2875929
2880550
2885675
2891055
2895900
2899032
2898970
2894161
2883648
2867602
2847560
2826284
2807272
2794016
2788837
2792467
2803773
2819853
2836970
2851256
2859710
2860992
2855607
2845482
2833313
2821976
2813859
2810392
2812085
2818607
2829024
2842173
2856868
2872024
2886557
2899388
2909384
2915432
2916581
2912339
2902843
2889087
2872925
2856620
2842446
2832124
2826216
2823957
2823384
2822004
2817477
2808452
2795179
2779686
2765341
2755931
2754510
2762394
2778806
2801071
2825372
2847762
2865190
2876044
2880211
2878706
2873097
2864773
2854740
2843489
2831238
2818237
2804825
2791555
2778922
2767288
2756841
2747532
2739544
2733387
2729926
2730134
2734795
2744098
2757311
2772866
2788621
2802338
2812170
2816894
2816128
2810120
2799601
2785388
2768501
2750238
2732184
2716293
2704615
2698826
2699809
2707046
2718714
2731874
2743200
2749909
2750436
2744866
2734852
2723105
2712700
2706331
2705649
2711002
2721550
2735734
2751763
2767799
2782306
2794207
2802755
2807504
2808240
2804879
2797799
2787770
2775874
2763596
2752584
2744397
2740200
2740652
2745746
2754673
2766003
2777820
2788118
2795191
2797916
2796114
2790553
2782727
2774622
2768188
2764879
2765417
2769381
2775607
2782739
2789753
2796340
2803002
2810931
2821640
2836272
2855116
2877249
2900526
2922130
2939213
2949384
2951414
2945350
2932461
2914970
2895470
2876473
2859748
2846259
2835924
2827791
2820459
2812396
2802402
2789996
2775409
2759644
2744242
2730714
2720322
2713594
2710320
2709772
2710886
2712381
2713267
2712896
2710929
2707249
2701787
2694534
2685680
2675801
2666044
2657907
2652987
2652393
2656311
2663668
2672237
2679327
2682327
2679706
2671344
2658590
2644016
2630532
2620438
2614829
2613371
2614515
2616350
2617098
2615777
2612396
2607861
2603653
2601248
2601489
2604515
2609754
2616137
2622525
2628042
2632281
2635222
2636986
2637709
2637303
2635703
2633276
2631398
2633027
2642961
2667660
2714279
2789557
2898533
3043302
3222355
3430626
3660292
3901866
4145346
4381103
4600506
4795613
4958630
5081319
5154702
5169579
5117661
4993305
4795577
4529859
4208531
3850303
3478346
3117494
2790766
2516223
2305048
2160667
2079174
2051439
2065391
2108367
2169144
2238998
2311765
2383468
2451576
2514373
2570528
2619117
2659901
2693303
2720176
2741536
2758326
2770826
2778596
2780716
2776358
2765599
2749761
2731375
2713899
2700967
2695485
2698820
2710451
2728023
2747911
2766025
2778958
2784833
2783603
2777247
2769266
2763680
2764095
2772622
2789175
2811504
2835506
2856278
2869361
2871861
2863371
2846115
2824521
2804280
2791094
2789143
2800198
2823274
2854864
2889894
2922822
2948781
2964580
2969357
2964449
2952819
2938363
2925024
2915981
2913067
2916792
2926498
2940903
2958613
2978651
3000743
3025327
3052932
3083784
3117267
3151784
3184741
3213124
3234203
3246300
3249171
3243942
3232879
3218912
3204960
3193435
3186192
3184636
3189691
3201899
3221484
3248190
3281199
3318955
3359299
3399770
3438161
3472830
3502938
3528467
3549811
3567409
3581531
3592375
3600413
3606605
3612576
3620729
3633635
3653505
3681456
3716991
3757911
3800867
3842058
3878054
3906536
3926797
3939784
3947620
3953063
3958922
3967350
3979477
3995323
4013707
4032396
4048349
4058403
4059813
4050870
4031219
4001949
3965376
3924429
3881899
3839874
3799311
3760109
3721207
3681238
3639108
3594150
3546202
3495509
3442576
3387886
3332022
3275853
3220758
3168529
3121209
3080709
3048130
3023398
3005095
2990811
2977877
2963976
2947588
2928357
2906887
2884356
2861898
2840104
2818797
2797244
2774729
2750953
2726438
2702693
2681837
2666150
2657337
2656119
2662100
2673787
2688942
2705093
2719987
2731733
2738960
2740797
2736840
2727095
2712017
2692671
2670791
2648756
2629341
2615389
2609324
2612599
2625293
2646226
2672898
2701875
2729426
2752105
2767110
2772618
2767955
2753547
2730830
2702279
2671252
2641679
2617719
2602919
2599619
2608297
2627235
2652824
2680162
2703952
2720006
2726145
2722524
2711601
2697357
2684064
2675192
2672451
2675407
2681930
2688949
2693425
2693270
2687779
2677483
2663715
2648163
2632488
2617961
2605569
2596232
2591051
2591163
2597511
2610361
2628624
2650007
2671135
2688121
2697762
2698422
2690470
2676323
2659824
2645384
2636879
2636706
2645315
2661252
2681818
2703828
2724292
2740930
2752471
2758573
2759466
2755666
2747747
2736299
2721935
2705315
2687359
2669144
2651944
2637084
2625922
2619581
2618825
2624035
2634920
2650765
2670419
2692136
2713888
2733638
2749405
2759679
2763590
2760962
2752479
2739511
2723897
2707643
2692871
2681459
2674783
2673533
2677729
2686677
2699074
2713081
2726540
2737279
2743427
2743566
2737098
2724485
2707161
2687301
2667496
2650175
2637138
2629330
2626639
2628027
2631867
2636463
2640373
2642726
2643242
2642273
2640418
2638398
2637136
2637476
2639991
2644949
2652366
2661736
2672261
2682777
2691947
2698461
2701457
2700447
2695473
2687135
2676370
2664227
2651486
2638732
2626287
2614256
2602869
2592573
2584135
2578652
2577246
2580676
2589031
2601595
2616873
2632762
2646978
2657558
2663153
2663323
2658565
2650140
2639642
2628748
2619125
2611946
2608062
2608000
2611921
2619740
2631110
2645221
2660665
2675624
2688223
2696866
2700629
2699721
2695466
2689956
2685622
2684602
2688263
2696896
2709723
2725190
2741336
2756345
2768930
2778446
2784922
2788999
2791884
2795268
2800964
2810649
2825458
2845585
2870023
2896363
2921104
2940091
2949285
2945752
2928277
2897789
2857325
2811478
2765517
2724426
2691982
2670158
2658982
2656723
2660411
2666436
2671231
2671808
2666197
2653851
2635609
2613622
2590954
2571000
2556829
2550469
2552526
2562169
2577204
2594556
2610985
2623825
2631372
2633133
2629795
2622735
2613711
2604333
2595709
2588363
2582399
2577731
2574330
2572516
2572962
2576408
2583494
2594319
2608275
2623954
2639383
2652615
2662064
2666888
2667194
2663846
2657930
2650317
2641283
2630359
2616674
2599415
2578432
2554665
2530450
2509621
2497304
2499457
2522404
2572074
2653310
2769233
2920846
3106685
3322856
3563059
3819061
4081260
4339156
4582064
4799504
4981243
5117603
5199652
5219568
5171440
5052072
4862028
4606685
4296579
3947193
3578110
3211307
2868788
2570214
2330608
2158922
2057153
2020739
2039694
2100449
2188008
2287808
2387351
2477195
2551456
2607826
2646833
2671290
2685442
2694228
2702510
2714078
2731260
2754403
2781716
2809686
2833928
2850150
2855299
2848387
2830857
2806387
2780040
2757080
2741874
2736989
2742534
2756411
2775101
2794801
2812295
2825908
2835813
2843671
2851903
2862561
2876424
2892702
2909197
2922960
2931396
2933197
2928951
2921123
2913378
2909511
2912333
2922843
2940045
2961178
2982613
3000931
3013803
3020494
3021970
3020379
3018431
3018584
3022314
3029960
3040676
3052735
3064183
3073437
3079665
3083059
3084651
3086058
3089007
3094976
3104889
3118972
3136799
3157297
3179124
3200733
3220718
3238080
3252466
3264283
3274688
3285360
3298216
3314751
3335682
3360735
3388545
3416860
3443163
3465345
3482280
3494164
3502402
3509432
3518263
3531856
3552461
3581218
3618097
3661941
3710578
3761278
3811134
3857459
3898134
3931918
3958623
3979141
3995164
4008677
4021449
4034542
4048141
4061443
4073098
4081887
4087263
4089622
4090387
4091698
4095793
4104332
4117872
4135788
4156452
4177589
4196706
4211608
4220709
4222840
4217072
4202459
4178245
4143932
4099552
4045900
3984788
3918995
3851942
3787055
3727112
3673777
3627267
3586430
3549219
3513300
3476517
3437244
3394684
3348937
3300793
3251675
3203384
3157894
3117254
3083293
3057348
3040009
3030854
3028413
3030172
3032951
3033531
3029040
3017526
2998282
2972189
2941539
2909683
2880373
2857328
2843595
2840897
2849284
2866956
2890548
2915538
2936968
2950431
2952898
2943205
2922470
2893855
2861992
2832023
2808526
2794774
2792211
2800306
2816976
2839117
2863374
2886744
2906978
2922636
2932996
2937922
2937705
2932978
2924707
2914325
2903712
2895099
2890515
2891492
2898683
2911333
2927380
2943831
2957389
2965217
2965506
2958092
2944466
2927346
2910033
2895477
2885586
2880815
2880117
2881405
2882517
2881801
2878619
2873570
2868289
2864890
2865226
2870319
2880221
2894027
2910334
2927598
2944361
2959558
2972495
2982738
2989904
2993607
2993598
2989845
2982719
2973055
2962051
2950957
2940648
2931551
2923504
2915884
2908014
2899530
2890608
2882002
2874824
2870113
2868487
2869988
2873866
2878996
2884324
2889251
2893682
2897998
2902996
2909299
2917220
2926668
2936967
2947210
2956516
2964128
2969412
2971721
2970550
2965601
2957006
2945386
2932082
2919061
2908678
2903263
2904423
2912543
2926494
2943641
2960352
2972822
2977913
2973902
2960906
2940911
2917222
2893852
2874754
2863013
2860257
2866501
2880373
2899375
2920574
2941302
2959378
2973309
2982378
2986336
2985141
2978765
2967300
2951019
2930495
2906743
2881347
2856328
2833859
2816044
2804449
2800021
2803111
2813332
2829851
2851486
2876693
2903568
2930006
2953769
2972695
2985128
2990128
2987640
2978611
2964996
2949386
2934339
2922015
2913608
2909124
2907456
2906885
2905638
2902524
2897233
2890459
2883645
2878456
2876146
2877103
2880682
2885433
2889692
2892152
2892263
2890461
2887762
2885432
2884425
2884977
2886523
2888088
2888657
2887634
2885107
2881704
2878344
2875823
2874499
2874194
2874307
2874336
2874210
2874626
2876951
2882927
2894041
2910932
2933033
2958474
2984379
3007276
3023894
3031816
3030054
3019343
3002020
2981598
2962095
2947331
2940226
2942385
2953900
2973594
2999269
3028344
3058305
3087037
3112845
3134434
3150806
3161185
3164945
3161868
3152457
3138012
3120628
3102941
3087675
3076964
3071807
3071759
3075130
3079418
3081992
3080684
3074520
3063818
3049912
3034691
3019975
3006875
2995666
2985977
2977080
2968429
2959911
2952051
2945660
2941579
2940348
2941904
2945493
2949934
2953976
2956559
2956915
2954778
2950422
2944522
2938032
2932007
2927653
2926179
2928476
2935006
2945759
2960044
2976464
2993086
3007984
3019541
3026710
3029298
3027844
3023513
3017779
3012069
3007504
3004727
3003862
3004722
3006899
3009941
3013494
3017374
3021457
3025756
3030388
3035658
3042319
3051673
3065788
3087723
3121535
3171946
3243936
3342151
3470059
3629325
3819470
4037538
4277955
4532564
4791028
5041393
5270339
5464027
5608672
5691473
5701690
5631798
5478950
5246106
4942853
4585423
4195564
3798486
3420117
3083970
2808086
2603177
2471812
2409173
2404942
2445602
2517016
2606357
2703258
2799827
2890212
2970189
3036740
3087850
3122815
3142512
3149370
3147074
3139939
3132077
3126421
3124260
3125288
3128105
3131134
3133409
3134955
3136755
3140376
3147339
3158387
3172979
3189443
3205506
3218752
3227355
3230681
3229430
3225344
3220692
3217588
3217442
3220693
3226848
3234637
3242567
3249437
3254677
3258505
3261869
3266039
3272205
3280998
3292098
3304224
3315319
3323058
3325440
3321568
3312175
3299591
3287343
3279574
3280098
3291384
3313942
3346106
3384489
3424483
3461124
3490182
3508868
3516116
3512708
3500926
3484097
3466017
3450353
3440087
3437124
3442230
3454832
3473028
3494156
3515414
3534427
3549753
3561252
3570139
3578664
3589441
3604671
3625673
3652540
3683949
3717406
3749883
3778548
3801473
3818120
3829473
3837772
3846129
3857777
3875377
3900626
3933818
3973993
4019192
4066713
4113610
4157024
4194480
4224199
4245258
4257654
4262185
4260584
4255277
4248999
4244592
4244536
4250521
4263200
4282034
4305290
4330429
4354671
4375483
4391016
4400466
4404137
4403184
4399057
4393009
4385601
4376694
4365441
4350610
4330942
4305482
4273958
4236633
4194273
4147974
4098882
4047927
3995918
3943454
3890947
3838737
3787211
3736459
3686325
3636747
3587573
3538718
3490402
3443326
3398561
3357105
3319913
3287567
3260079
3236975
3217451
3200457
3184911
3169745
3153853
3136165
3115712
3092020
3065280
3036734
3008816
2984658
2967767
2961092
2966203
2982680
3008156
3038731
3069713
3096566
3115988
3126174
3126913
3119697
3106798
3090701
3073752
3057865
3044532
3034676
3028824
3026963
3028587
3032771
3038325
3043786
3047800
3049451
3048410
3045120
3040684
3036749
3034776
3035593
3039284
3044810
3050436
3054180
3054249
3049702
3040679
3028566
3015763
3004939
2998473
2997859
3003361
3014103
3028193
3043200
3056809
3067010
3072519
3072747
3067730
3057965
3044468
3028895
3013492
3000796
2993323
2993186
3001369
3017267
3038504
3061379
3081597
3095285
3100061
3095473
3083038
3065889
3047768
3032147
3021332
3016218
3016287
3019972
3025346
3030849
3035592
3039468
3042953
3046736
3051349
3056797
3062748
3068514
3073385
3076936
3079163
3080566
3081918
3083864
3086681
3090164
3093615
3096068
3096635
3094823
3090765
3085266
3079534
3074877
3072285
3072252
3074515
3078072
3081725
3084330
3085219
3084320
3082085
3079426
3077111
3075725
3075524
3076357
3077922
3079863
3081936
3083969
3085808
3087128
3087330
3085757
3081775
3075043
3065744
3054712
3043273
3032954
3025276
3021273
3021221
3024636
3030284
3036404
3041027
3042476
3039616
3032109
3020689
3006979
2993392
2982638
2977114
2978513
2987376
3002941
3023165
3045055
3065320
3081065
3090203
3091879
3086547
3075708
3061574
3046747
3033548
3023687
3018077
3016816
3019166
3023711
3028802
3032740
3034197
3032517
3027859
3021150
3013933
3008038
3004980
3005572
3009686
3016251
3023569
3029710
3033047
3032797
3029157
3023078
3015785
3008382
3001495
2995183
2989024
2982486
2975405
2968287
2962231
2958716
2959118
2964047
2973221
2985583
2999421
3012984
3024998
3034814
3042372
3047878
3051508
3053122
3052268
3048564
3042286
3034673
3028094
3025855
3031243
3046475
3071722
3104863
3141704
3176784
3204708
3221370
3224893
3216084
3198011
3175160
3152316
3133524
3121305
3116345
3117859
3123803
3131452
3137978
3140660
3137125
3125741
3105867
3078004
3044071
3007259
2971554
2941073
2919238
2907922
2907000
2914433
2926816
2940252
2951260
2957433
2957961
2953539
2945832
2936939
2928694
2922389
2918737
2917788
2919163
2922287
2926623
2931646
2936767
2941381
2944742
2945908
2944087
2938760
2929670
2917116
2901822
2884816
2867461
2851195
2837322
2826977
2820987
2819630
2822631
2829537
2839590
2851785
2865119
2878426
2890412
2899829
2905518
2906629
2902878
2894735
2883496
2871355
2861324
2857073
2862782
2882962
2922304
2985291
3075801
3196588
3348948
3532346
3744101
3979211
4230306
4487935
4740972
4977098
5183490
5347540
5457539
5503293
5476960
5373968
5193881
4941234
4626333
4265182
3878758
3491421
3128241
2812030
2560303
2382896
2280885
2247248
2268678
2328401
2409318
2496789
2580375
2654265
2716608
2768251
2811095
2846840
2876465
2900209
2917909
2929644
2935905
2937565
2935609
2930672
2922928
2912284
2898902
2883521
2867801
2854488
2846973
2848553
2861475
2886154
2920558
2960541
3000558
3034774
3058531
3069470
3067818
3056247
3039093
3021141
3006512
2997810
2995807
2999623
3007478
3017254
3027245
3036617
3045305
3053920
3063230
3073773
3085549
3097698
3108679
3116615
3119723
3116694
3107175
3092216
3074129
3056344
3042731
3036971
3041781
3058215
3085293
3119950
3157463
3192407
3219713
3235928
3239966
3233309
3219685
3204228
3192246
3187823
3192961
3207176
3227884
3251301
3273621
3292295
3306558
3317622
3328186
3341328
3359558
3384108
3414520
3448757
3483833
3516700
3544894
3567132
3583441
3595091
3604277
3613567
3625455
3641939
3664021
3691600
3723521
3757861
3792346
3824915
3854221
3879796
3901991
3921659
3939738
3956919
3973546
3989521
4004504
4018341
4031157
4043500
4056174
4069815
4084734
4100891
4117702
4134201
4149358
4162330
4172617
4179903
4183904
4184204
4180105
4170781
4155417
4133443
4104697
4069433
4028318
3982255
3932230
3879237
3824319
3768514
3712949
3658737
3606758
3557376
3510190
3464060
3417476
3369029
3317908
3264391
3209867
3156605
3107377
3064823
3030574
3004963
2987084
2974985
2966272
2958550
2950076
2940024
2928435
2916014
2903655
2892013
2881282
2871115
2860615
2848622
2834145
2816728
2796702
2775173
2753885
2734796
2719632
2709576
2704941
2705204
2709200
2715364
2721971
2727507
2730842
2731283
2728719
2723543
2716484
2708764
2702009
2698018
2698368
2703996
2715074
2730756
2749147
2767628
2783378
2793962
2797882
2794869
2785772
2772413
2757225
2742729
2731136
2723960
2721923
2724866
2731781
2741014
2750616
2758631
2763431
2764053
2760347
2753005
2743423
2733378
2724652
2718579
2715684
2715656
2717387
2719149
2718829
2714491
2704921
2689990
2670815
2649634
2629471
2613597
2604901
2605279
2615157
2633554
2658267
2686248
2714191
2739089
2758643
2771474
2777017
2775405
2767402
2754129
2736966
2717418
2697069
2677572
2660395
2646808
2637752
2633590
2634076
2638430
2645463
2653699
2661560
2667722
2671308
2672015
2670141
2666489
2662197
2658458
2656280
2656156
2657913
2660968
2664317
2666905
2667898
2666902
2663787
2658659
2651818
2643518
2634177
2624416
2615120
2607545
2603270
2603899
2610686
2624070
2643341
2666552
2690670
2711998
2726915
2732643
2727788
2712739
2689617
2661935
2633875
2609499
2592039
2583173
2582910
2589896
2601837
2616112
2630170
2641951
2650102
2653994
2653428
2648641
2640329
2629428
2617130
2604729
2593392
2583997
2576912
2571865
2568073
2564627
2560752
2556260
2551742
2548252
2547112
2549354
2555191
2563857
2573792
2583146
2590146
2593733
2593723
2590764
2585968
2580520
2575376
2571189
2568164
2566339
2565888
2567018
2569859
2574326
2579916
2585610
2590055
2591867
2590088
2584354
2575085
2563616
2551780
2541593
2534783
2532422
2534757
2541235
2550817
2562139
2573864
2584932
2594688
2602932
2609707
2615306
2620203
2624964
2630161
2636231
2643319
2651516
2660664
2670432
2680594
2691077
2702079
2714094
2727785
2743694
2761930
2781915
2802274
2820923
2835461
2843858
2844884
2838405
2825543
2808359
2789310
2770793
2754623
2741791
2732490
2726361
2722701
2720611
2719136
2717176
2713385
2706273
2694397
2676751
2652960
2623731
2590889
2557107
2525387
2498632
2479113
2468173
2466048
2471833
2483694
2499242
2515841
2530943
2542376
2548679
2549346
2544898
2536712
2526637
2516492
2507552
2500395
2494791
2489789
2484480
2478485
2472197
2466925
2464488
2466590
2474225
2486943
2502669
2517906
2528514
2530745
2522247
2502774
2474530
2441774
2409916
2384274
2368823
2365397
2373439
2390181
2411376
2432341
2449133
2459331
2462579
2460703
2457737
2459476
2472842
2505394
2564200
2654935
2781361
2944577
3142570
3370351
3620160
3882045
4144755
4396373
4624844
4818349
4965599
5056009
5080018
5029874
4901018
4693370
4412487
4070458
3685658
3281372
2883532
2517617
2205514
1963053
1798292
1711298
1695043
1737187
1822428
1934564
2058268
2180410
2290528
2381341
2448731
2491547
2511509
2512736
2501179
2483570
2466376
2454736
2451422
2456498
2467773
2481693
2494462
2503155
2506626
2505620
2502315
2499595
2500000
2504823
2513730
2524826
2535130
2541714
2542574
2537233
2527017
2514531
2502999
2495306
2493275
2497135
2505566
2516328
2526847
2535078
2540295
2543152
2545561
2550193
2559679
2575742
2598745
2627513
2659427
2690876
2717723
2736184
2743565
2738809
2722931
2698927
2671385
2645694
2627074
2619410
2624339
2640835
2665424
2692819
2717245
2733799
2739718
2735039
2722628
2707351
2694880
2690454
2697494
2717083
2747770
2786131
2827775
2868494
2905200
2936205
2961360
2981700
2998627
3013285
3026121
3037124
3045999
3052507
3057079
3060905
3065753
3073661
3086292
3104344
3127387
3154140
3182827
3211777
3240070
3267929
3296547
3327593
3362579
3402086
3445181
3489450
3531390
3567338
3594367
3611060
3617913
3617241
3612488
3607333
3604868
3606969
3614062
3625375
3639544
3655234
3671448
3687728
3704026
3720243
3735628
3748615
3756889
3757880
3749396
3730390
3701194
3663560
3620152
3574051
3527956
3483586
3441470
3400983
3360723
3318952
3274200
3225550
3172748
3116422
3057750
2998464
2940371
2885009
2833393
2785863
2742082
2701275
2662649
2625668
2590416
2557621
2528489
2504250
2485592
2472336
2463200
2456048
2448324
2437624
2422406
2402478
2379042
2354499
2331756
2313502
2301460
2295934
2295801
2298817
2302373
2304164
2302817
2298445
2292302
2286486
2283113
2283475
2287569
2294109
2300910
2305652
2306754
2303879
2298209
2291800
2286981
2285452
2287711
2292993
2299440
2304946
2307922
2307620
2304328
2299037
2292757
2285987
2278309
2268713
2256164
2240189
2221355
2201490
2183459
2170238
2164190
2166463
2176493
2192268
2210828
2228864
2243461
2252711
2255886
2253355
2246325
2236467
2225678
2215761
2208384
2204762
2205656
2211194
2220637
2232495
2244816
2255396
2262344
2264621
2262208
2256102
2247901
2239300
2231495
2224789
2218539
2211618
2203235
2193448
2183503
2175794
2173229
2178289
2192202
2214100
2241214
2269430
2294281
2312046
2320666
2320057
2311742
2298208
2282063
2265247
2248739
2232635
2216622
2200455
2184337
2168981
2155459
2144948
2138113
2135035
2135303
2138146
2142698
2148387
2154971
2162415
2170846
2180303
2190469
2200475
2209220
2215531
2218491
2217557
2213084
2206184
2198492
2191710
2187220
2185786
2187328
2191041
2195460
2198953
2200144
2198260
2193397
2186465
2178934
2172473
2168502
2167972
2170939
2176520
2183144
2188882
2191756
2190204
2183450
2171768
2156364
2139206
2122629
2108639
2098665
2093262
2091948
2093440
2096129
2098522
2099682
2099352
2098044
2096850
2096913
2099101
2103681
2110429
2118823
2128206
2137859
2147112
2155342
2161858
2165849
2166363
2162632
2154232
2141475
2125624
2108809
2093573
2082426
2077219
2078548
2085629
2096428
2108005
2116999
2120451
2116132
2103309
2082879
2057354
2030755
2007866
1993493
1991633
2004488
2031809
2070828
2116603
2162813
2203092
2232234
2247303
2248085
2236874
2217855
2196023
2176090
2161478
2153910
2153297
2158196
2166424
2175748
2184429
2191543
2197063
2201569
2206033
2211404
2218526
2227951
2240050
2254801
2271833
2290208
2308352
2324100
2335027
2338767
2333452
2318337
2294153
2262936
2227926
2192878
2161407
2136112
2118209
2107494
2102501
2100933
2100105
2097462
2091096
2080131
2064919
2046914
2028483
2012294
2000648
1994900
1995105
1999847
2006577
2012460
2015110
2013116
2006707
1997327
1987112
1978188
1972139
1969557
1970045
1972704
1976468
1980532
1984437
1987798
1990235
1991005
1989165
1983782
1974291
1960903
1944789
1928006
1913058
1902227
1897008
1897701
1903446
1912319
1922001
1930451
1936315
1938990
1938599
1935974
1932607
1930619
1933288
1945230
1972319
2021350
2099210
2211674
2362061
2550216
2771974
3019395
3281562
3545831
3799398
4030420
4228580
4384972
4491630
4541047
4525919
4439977
4279434
4044657
3742132
3385537
2995561
2597833
2219922
1887632
1621320
1433226
1326224
1294314
1324766
1400700
1503959
1617480
1726988
1821869
1895452
1944902
1970865
1977100
1969866
1956847
1945962
1943947
1955047
1979931
2015560
2056005
2093815
2121870
2134977
2131098
2111617
2080638
2044016
2008074
1978469
1959193
1951994
1956431
1970244
1989900
2011376
2030995
2046127
2055651
2060028
2060781
2060107
2060184
2062551
2067760
2075302
2084216
2093423
2102130
2110216
2118219
2127038
2137374
2149432
2162877
2176611
2189119
2198970
2205160
2207360
2205829
2201508
2195725
2189988
2185779
2184355
2186564
2192714
2202401
2214653
2228092
2241080
2252091
2260251
2265357
2268110
2269968
2272801
2278443
2288264
2302932
2322243
2345241
2370414
2396017
2420307
2441780
2459419
2472737
2481666
2486634
2488601
2488869
2489239
2491639
2498128
2510617
2530565
2558624
2594445
2636637
2682948
2730583
2776797
2819279
2856457
2887775
2913751
2935617
2954989
2973460
2992242
3011974
3032789
3054398
3076157
3097345
3117249
3135346
3151299
3164901
3176464
3186823
3197125
3208737
3222868
3239853
3259041
3278490
3295274
3306207
3308590
3300892
3283309
3257699
3227141
3195072
3164350
3136301
3110523
3085142
3057405
3024528
2984436
2936302
2880513
2818402
2751942
2683309
2614576
2547775
2484790
2427367
2377010
2334588
2300158
2272824
2250657
2230936
2210807
2187968
2161159
2130348
2096578
2061466
2026711
1993832
1963920
1937669
1915456
1897626
1884411
1875750
1871280
1870264
1871470
1873444
1874995
1875480
1875127
1874861
1876002
1879673
1886189
1894854
1903929
1911091
1914024
1911107
1901813
1886820
1867773
1846861
1826291
1807959
1793094
1782218
1775341
1772039
1771633
1773436
1776582
1780129
1783172
1785032
1785345
1784169
1781958
1779387
1777117
1775539
1774766
1774344
1773542
1771582
1767976
1762837
1756913
1751459
1747963
1747739
1751648
1759852
1771718
1785910
1800545
1813488
1822617
1826056
1822442
1811202
1792676
1768309
1740654
1713016
1689111
1672247
1664762
1667355
1678935
1697018
1718233
1739168
1757211
1770870
1779706
1783894
1783831
1779637
1770979
1757362
1738689
1715688
1690173
1664877
1642915
1627101
1619213
1619474
1626785
1639188
1654433
1670723
1687019
1703163
1719352
1735588
1751417
1765494
1775871
1780510
1777968
1767916
1751573
1731587
1711324
1694211
1682935
1678740
1681163
1688314
1697497
1705888
1711296
1712850
1711066
1707509
1704267
1703245
1705349
1710323
1716758
1722443
1725158
1723407
1716690
1705668
1691898
1677537
1664705
1654998
1649304
1647768
1649891
1654805
1661456
1668771
1675859
1681826
1685612
1686151
1682441
1673721
1659676
1640862
1618928
1596546
1577087
1564037
1560129
1566610
1582982
1606871
1634432
1661280
1683427
1698205
1704722
1703887
1697842
1689258
1680592
1673504
1668581
1665471
1663266
1660939
1657705
1653221
1647422
1640534
1632909
1624871
1616720
1608848
1601863
1596367
1592650
1590732
1590298
1590662
1590944
1590381
1588623
1585908
1583216
1581991
1583745
1589641
1600025
1614310
1630856
1647358
1661254
1670221
1672818
1668720
1658880
1645233
1630218
1616560
1606661
1602361
1604816
1614489
1631198
1654175
1682291
1713996
1747486
1780615
1810925
1835958
1853631
1862342
1861351
1851012
1832869
1809596
1784838
1762609
1746598
1739588
1742774
1755425
1774978
1797453
1818272
1832925
1837895
1831169
1812566
1783501
1746352
1704246
1660456
1617868
1578870
1545283
1518431
1499117
1487743
1484114
1487287
1495623
1506889
1518629
1528705
1535533
1538341
1537363
1533582
1528486
1523725
1520460
1519134
1519480
1520665
1521607
1521372
1519616
1516751
1513787
1512099
1512944
1517009
1524155
1533382
1543193
1551915
1557947
1560169
1557987
1551293
1540371
1525876
1508841
1490709
1473418
1459115
1449854
1446996
1450798
1460153
1472766
1485516
1495260
1499717
1498240
1492539
1486694
1486916
1500924
1536687
1601578
1701537
1840346
2019271
2236581
2487304
2763223
3052925
3342447
3616048
3857324
4050565
4181758
4239536
4215945
4107119
3913925
3642508
3304635
2917580
2503423
2087588
1696381
1354053
1079952
886116
776069
744911
780869
867739
987302
1121826
1256052
1377958
1479082
1554409
1602019
1622870
1620462
1600601
1570816
1539222
1513298
1498558
1497472
1509210
1530226
1555447
1579699
1599069
1611816
1618385
1620830
1621886
1623805
1627801
1633579
1639571
1643668
1644125
1640149
1632223
1622151
1612518
1605976
1604644
1609595
1620725
1636621
1655018
1673278
1688932
1700262
1706660
1708702
1707937
1706452
1706451
1709629
1716657
1727273
1740288
1753945
1766595
1777135
1785284
1791670
1797533
1804271
1813027
1824288
1837748
1852278
1866331
1878161
1886418
1890546
1890721
1888041
1884305
1881552
1882007
1887377
1898634
1915953
1938504
1964576
1991923
2018002
2040456
2057644
2068984
2075173
2078014
2080091
2084187
2092626
2106879
2127097
2152241
2180583
2210079
2239039
2266541
2292569
2317842
2343358
2370058
2398445
2428597
2460306
2493053
2526429
2560073
2593412
2625764
2655969
2682479
2703779
2718756
2727223
2730250
2729916
2729003
2730608
2737462
2751477
2773441
2802913
2838409
2877622
2917676
2955310
2987116
3010060
3021747
3020890
3007423
2982524
2948504
2908256
2864866
2821110
2779063
2739973
2704233
2671571
2641057
2611238
2580429
2546779
2508450
2463818
2411774
2352126
2285631
2213916
2139497
2065479
1995096
1931275
1876159
1830844
1795322
1768560
1748690
1733590
1721177
1709887
1698969
1688457
1678912
1670903
1664624
1659601
1654729
1648598
1639853
1627689
1612283
1594795
1577041
1560931
1547968
1538892
1533521
1530872
1529797
1529369
1529248
1529668
1531226
1534510
1539522
1545571
1551214
1554616
1554125
1548786
1538560
1524561
1508673
1493040
1479514
1469197
1462408
1458746
1457245
1456949
1457186
1457739
1458748
1460311
1462306
1464347
1465784
1465785
1463745
1459724
1454537
1449627
1446842
1447780
1453423
1463631
1477077
1491545
1504441
1513562
1517522
1516252
1511004
1503945
1497526
1493903
1494310
1498598
1505233
1511757
1515494
1514368
1507414
1495181
1479739
1464207
1452145
1446592
1449339
1460550
1478684
1500647
1522531
1540378
1550894
1552016
1543254
1525611
1501357
1473379
1444914
1419070
1398428
1384965
1379771
1382926
1393638
1410246
1430412
1451268
1470114
1484777
1493942
1497449
1496355
1492533
1488190
1485254
1484910
1487257
1491386
1495645
1498156
1497339
1492493
1483931
1472991
1461767
1452560
1447249
1446969
1451763
1460378
1470562
1479677
1485072
1484647
1477424
1463816
1445643
1425826
1407724
1394356
1387563
1387810
1393983
1403610
1413562
1421156
1424830
1424480
1421369
1417676
1415747
1417155
1422275
1430297
1439533
1448127
1454721
1458881
1461111
1462438
1463706
1465186
1466309
1465794
1462216
1454749
1443461
1429591
1415199
1402497
1393090
1387427
1384692
1383138
1380862
1376601
1370220
1362711
1355870
1351785
1352081
1357235
1366591
1378617
1391445
1403302
1412855
1419309
1422263
1421409
1416361
1406796
1392797
1375277
1356180
1338566
1326180
1322551
1330065
1349293
1378587
1414197
1451143
1484349
1509738
1525044
1530159
1526853
1518052
1506964
1496398
1488228
1483302
1481768
1483399
1487793
1494768
1504301
1516303
1530476
1546115
1562073
1576929
1589188
1597583
1601264
1600026
1594333
1585167
1573818
1561729
1550093
1539661
1530611
1522513
1514391
1505122
1493687
1479465
1462425
1443189
1423005
1403401
1385812
1371297
1360381
1352932
1348331
1345730
1344262
1343369
1343015
1343491
1345270
1348804
1354212
1361130
1368786
1376020
1381518
1384209
1383426
1378941
1370860
1359709
1346297
1331648
1316928
1303499
1292728
1285789
1283360
1285338
1290769
1297998
1304831
1309170
1309585
1305692
1298377
1289531
1281470
1276286
1275154
1277992
1283512
1289662
1294180
1295298
1292031
1284389
1273398
1260744
1248835
1240997
1241636
1256240
1291025
1352498
1446482
1577019
1745525
1950169
2185775
2444187
2714980
2986341
3246049
3482118
3683029
3838033
3937100
3971216
3933057
3817985
3625396
3360123
3033252
2662166
2269479
1880804
1521514
1213387
971656
803339
707039
674199
691687
744568
818671
902371
987098
1067369
1139937
1202967
1255463
1297159
1328485
1350781
1366304
1377820
1388089
1399094
1411691
1425697
1440159
1453954
1466303
1476934
1485898
1493228
1498632
1501333
1500311
1494728
1484440
1470389
1454578
1439866
1429303
1425376
1429572
1441930
1461186
1485167
1511089
1536274
1558443
1575964
1587892
1593987
1594509
1590180
1582153
1571939
1561185
1551462
1544110
1540038
1539508
1542047
1546622
1552080
1557532
1562662
1567961
1574644
1584192
1597933
1616394
1638966
1663775
1688040
1708712
1723322
1730704
1731321
1727334
1721998
1718714
1720352
1728477
1742920
1762039
1783380
1804334
1822947
1838260
1850532
1860899
1870966
1882430
1896720
1914742
1936794
1962649
1991697
2022864
2054859
2086304
2115810
2142146
2164701
2183540
2199519
2214173
2229526
2247769
2270799
2299876
2335233
2375924
2419954
2464554
2506629
2543298
2572285
2592364
2603603
2607354
2606245
2603626
2603056
2607745
2619953
2640515
2668664
2702164
2737675
2771342
2799557
2819385
2829338
2829441
2820939
2805907
2786755
2765727
2744474
2723868
2704106
2684912
2665568
2645127
2622390
2595727
2563287
2523180
2473872
2414834
2346847
2272343
2195242
2120324
2052494
1995806
1952536
1922764
1904395
1893475
1884997
1874027
1856488
1829972
1794122
1750418
1701921
1652423
1605686
1564861
1531932
1507653
1491666
1482734
1479101
1478905
1480276
1481409
1480622
1476350
1467431
1453372
1434655
1412936
1390814
1371541
1358342
1353535
1357869
1370336
1388127
1407423
1424397
1436106
1441133
1439946
1434393
1427124
1420583
1416327
1414514
1414000
1412928
1409323
1401967
1391041
1378173
1365956
1357375
1354821
1359368
1370398
1385594
1401686
1415204
1423375
1424856
1419988
1410638
1399558
1389468
1382299
1378705
1378102
1378880
1379235
1377834
1374303
1369485
1365187
1363501
1366213
1374010
1386128
1400411
1413847
1423354
1426439
1421846
1409969
1392676
1372858
1353919
1339056
1330695
1330203
1337633
1351913
1371050
1392531
1413641
1431895
1445281
1452227
1451935
1444400
1430421
1411650
1390200
1368629
1349443
1334814
1326344
1324703
1329511
1339596
1353206
1368302
1382989
1395832
1405999
1413315
1417942
1420206
1420318
1418132
1413202
1404869
1392530
1375946
1355535
1332574
1309135
1287857
1271569
1262806
1263292
1273440
1292312
1317588
1345835
1373144
1395703
1410652
1416498
1413399
1403268
1389191
1374684
1363115
1356894
1356805
1361894
1369783
1377332
1381505
1380191
1372830
1360553
1345827
1331799
1321389
1316444
1317258
1322645
1330461
1338343
1344487
1348073
1349548
1350162
1351230
1353505
1356662
1359145
1358508
1352121
1337962
1315420
1285720
1251978
1218564
1190281
1171421
1164812
1171172
1189056
1215278
1245443
1274856
1299453
1316636
1325603
1327371
1324253
1319175
1315040
1313975
1317075
1324300
1334818
1347411
1360669
1373428
1384872
1394377
1401474
1405994
1407830
1406967
1403653
1398391
1391991
1385475
1379954
1376444
1375949
1379237
1386806
1398894
1415447
1436012
1459538
1484577
1509286
1531638
1549704
1561947
1567447
1566114
1558960
1547640
1534194
1520643
1508565
1498776
1491276
1485360
1479789
1473068
1463876
1451478
1435718
1416988
1396237
1374640
1353407
1333615
1315927
1300765
1288367
1278771
1271919
1267692
1265910
1266207
1268061
1270982
1274458
1277935
1280947
1283100
1284019
1283408
1281163
1277315
1272073
1265923
1259390
1252881
1246648
1240686
1234870
1229045
1223451
1218859
1216261
1216784
1221053
1228803
1238791
1249028
1257127
1261149
1260229
1255012
1247643
1241155
1238667
1242431
1252905
1268790
1287022
1303321
1313603
1315009
1306786
1291054
1272949
1260157
1261990
1288234
1347834
1447740
1592007
1781230
2012410
2278891
2570602
2874428
3174783
3454646
3696270
3882505
3998203
4031700
3976123
3830346
3599761
3296182
2937239
2544963
2143840
1758482
1411020
1119204
894491
741193
656904
633477
658928
719516
801752
893668
985600
1070375
1143031
1200613
1241891
1267204
1278476
1279173
1273849
1267531
1264783
1268792
1280559
1298836
1320477
1341440
1357888
1367150
1368649
1363848
1355965
1349127
1347163
1352555
1365719
1384910
1406615
1426541
1440828
1447175
1445662
1438543
1429624
1423206
1422768
1429900
1443878
1461942
1480025
1493977
1500627
1498706
1489020
1474188
1457878
1443740
1434827
1433028
1438871
1451608
1469528
1490416
1511964
1532049
1548940
1561601
1569640
1573383
1574045
1573482
1573863
1577222
1584952
1597480
1614091
1632878
1651171
1666376
1676641
1681334
1681248
1678398
1675380
1674792
1678522
1687337
1700946
1718328
1738316
1759886
1782445
1805776
1829786
1854120
1878089
1900989
1922143
1941254
1958712
1975623
1993381
2013411
2036846
2064093
2094722
2127728
2161956
2196341
2230154
2263015
2294825
2325666
2355621
2384708
2412803
2439623
2464865
2488150
2508981
2526838
2541207
2551866
2559209
2564378
2569147
2575579
2585560
2600193
2619451
2641892
2664850
2685104
2699640
2706376
2704493
2694614
2678457
2658330
2636432
2614440
2593147
2572278
2550613
2526504
2498066
2463577
2421784
2372040
2314447
2249807
2179855
2106985
2033994
1963890
1899415
1842622
1794658
1755665
1724726
1700154
1679876
1661676
1643733
1624711
1603836
1581025
1556627
1531411
1506397
1482806
1461614
1443454
1428457
1416047
1404981
1393676
1380503
1364419
1345242
1323897
1302279
1282863
1268131
1259922
1259015
1264785
1275304
1287916
1299865
1308959
1313934
1314449
1310972
1304552
1296442
1287790
1279652
1273056
1268966
1268113
1271023
1277828
1288144
1300930
1314456
1326682
1335771
1340475
1340308
1335725
1327866
1318197
1308138
1298912
1291418
1286300
1284118
1285381
1290562
1299983
1313510
1330368
1349066
1367366
1382558
1391882
1393244
1385767
1369931
1347637
1321817
1296079
1274042
1258563
1251346
1252636
1261298
1274921
1290581
1305521
1317475
1325063
1327899
1326605
1322391
1316775
1311413
1307774
1307038
1309908
1316569
1326622
1339043
1352187
1363939
1372098
1374897
1371334
1361535
1346694
1328965
1310963
1295188
1283607
1277440
1277055
1281952
1291023
1302774
1315500
1327458
1337002
1342802
1343929
1339908
1330991
1318297
1303853
1290120
1279689
1274744
1276494
1284942
1298823
1315754
1332785
1346951
1355587
1356942
1350483
1336855
1317837
1296077
1274676
1256757
1244999
1241221
1245919
1258232
1275976
1295828
1314103
1327355
1333109
1330241
1319292
1302327
1282375
1262849
1247064
1237551
1235733
1241720
1254404
1271636
1290505
1307776
1320393
1325890
1322969
1311813
1294078
1272739
1251445
1233643
1221939
1217340
1219237
1225603
1233581
1240445
1244276
1244446
1241626
1237371
1233691
1232451
1234773
1240782
1249836
1260852
1272559
1283908
1294339
1303700
1312026
1319359
1325799
1331417
1336325
1340903
1345875
1352069
1360256
1370755
1383200
1396385
1408231
1416243
1418318
1413276
1401581
1385486
1368679
1355588
1350262
1355368
1371392
1396540
1427163
1458812
1487285
1509460
1523928
1531002
1532113
1529248
1524218
1518350
1512369
1506633
1501490
1497425
1494841
1493839
1493987
1493951
1491725
1485148
1472581
1453468
1428637
1400270
1371422
1345232
1324217
1309652
1301541
1298683
1299211
1301134
1302763
1303078
1301796
1299158
1295719
1291988
1288192
1284284
1280036
1275390
1270451
1265686
1262079
1260964
1263433
1270109
1280658
1293540
1306371
1316339
1320908
1318571
1309451
1295367
1279411
1265182
1255734
1252812
1256526
1265250
1276456
1287335
1295714
1300478
1301594
1299804
1296137
1291467
1286086
1279824
1272162
1262709
1251522
1239653
1229277
1223749
1227731
1246706
1286230
1351429
1446351
1573488
1733591
1925718
2147303
2393884
2659103
2934350
3208731
3468998
3699878
3885028
4008381
4055863
4017256
3887953
3670237
3373706
3015013
2616538
2204223
1805074
1444127
1141884
912160
761068
686793
680785
729522
816544
924930
1039091
1146040
1236290
1304053
1347162
1366647
1366311
1352081
1331091
1310678
1297193
1295015
1305686
1327760
1357285
1388924
1417396
1438771
1451265
1455412
1453679
1449611
1446795
1447914
1454199
1465261
1479333
1493876
1506249
1514259
1516738
1513626
1505976
1495768
1485606
1478258
1476239
1481353
1494184
1513964
1538585
1564910
1589571
1609624
1623363
1630683
1633115
1633296
1634074
1637708
1645007
1655197
1666328
1675808
1681613
1683010
1680774
1677103
1674866
1676725
1684260
1697461
1714838
1733937
1752176
1767590
1779452
1788316
1795774
1803801
1814005
1827202
1842964
1859898
1876081
1889594
1899423
1905772
1910186
1915221
1923783
1938313
1960154
1989066
2023257
2059694
2094825
2125213
2148615
2164474
2174028
2180077
2186294
2196307
2212750
2236644
2267289
2302636
2339899
2376369
2410218
2440916
2469261
2496871
2525302
2555590
2587762
2620726
2652703
2681830
2706806
2727203
2743418
2756371
2767087
2776292
2784355
2791258
2796966
2801809
2806644
2812796
2821696
2834069
2849433
2865950
2880703
2890197
2891379
2882324
2862809
2834138
2798648
2758978
2717275
2674734
2631490
2586911
2539997
2490104
2437403
2382791
2327819
2274229
2223409
2176090
2132296
2091594
2053341
2016859
1981663
1947384
1913641
1879949
1845856
1811112
1775856
1740806
1707381
1677709
1653996
1637867
1629860
1629041
1633028
1638291
1640877
1637270
1625189
1604096
1575393
1542164
1508457
1478603
1456423
1444361
1443224
1452117
1468596
1489232
1510141
1527675
1538932
1542125
1536929
1524454
1507079
1488063
1471131
1459822
1456861
1463696
1480150
1504397
1533137
1562220
1587316
1604677
1611862
1608088
1594225
1572426
1545803
1517737
1491256
1468926
1452568
1443434
1442323
1449551
1465009
1488054
1517338
1550647
1584990
1616725
1642113
1657944
1662059
1653821
1634286
1606168
1573433
1540442
1511124
1488435
1473749
1466819
1466282
1470207
1476713
1484480
1493019
1502561
1513746
1526825
1541520
1556731
1570528
1580882
1586085
1585249
1578570
1567382
1553813
1540231
1528740
1520822
1517299
1518289
1523520
1532591
1545006
1560261
1577711
1596341
1614678
1630853
1642863
1649025
1648336
1640716
1627251
1609944
1591237
1573610
1559068
1548746
1542832
1540416
1540165
1540812
1541494
1542106
1543241
1545866
1550849
1558633
1568633
1579268
1588502
1594176
1594751
1589825
1580307
1568393
1556929
1548790
1546124
1549686
1558722
1571256
1584535
1595621
1602232
1602957
1597656
1587301
1573530
1558355
1543779
1531433
1522435
1517301
1516094
1518459
1523598
1530419
1537731
1544441
1549637
1552723
1553588
1552520
1550150
1547198
1544315
1542015
1540435
1539336
1538239
1536570
1533865
1529918
1524753
1518722
1512362
1506286
1501143
1497353
1495175
1494720
1495914
1498613
1502649
1507960
1514393
1521931
1530614
1540367
1550959
1561994
1572783
1582524
1590404
1595542
1597509
1596334
1592432
1586722
1580445
1574925
1571140
1569672
1570749
1574212
1579769
1587253
1596643
1608278
1622660
1640150
1660664
1683545
1707660
1731540
1753546
1772154
1786108
1794707
1797630
1794990
1787271
1775134
1759406
1741229
1721635
1701620
1682195
1663953
1647084
1631445
1616530
1601677
1586281
1570091
1553268
1536573
1521271
1508871
1500915
1498691
1502842
1512962
1527510
1543848
1558670
1568664
1571243
1565174
1550913
1530403
1506720
1483387
1463523
1449142
1440928
1438527
1441077
1447727
1457844
1471168
1487480
1506122
1525534
1543264
1556409
1562194
1558830
1546174
1525787
1500700
1474816
1452058
1435515
1426987
1426878
1434180
1446996
1462926
1479511
1494418
1505680
1511917
1512470
1507500
1498074
1486332
1475245
1468457
1470311
1485756
1520083
1578184
1664204
1781119
1930051
2110179
2318564
2550048
2797526
3052200
3303900
3541509
3753025
3925904
4047601
4106426
4092638
3999957
3827119
3579106
3267560
2910135
2529134
2149069
1793816
1484022
1234669
1053951
943038
896915
905636
956279
1034890
1128046
1224043
1313610
1390435
1451282
1495596
1525165
1543357
1554277
1561904
1569420
1578573
1589630
1601500
1612271
1619921
1623024
1621276
1615643
1608096
1601296
1597867
1599858
1608362
1623214
1642878
1664879
1686227
1704116
1716530
1722682
1723192
1719953
1715574
1712668
1713209
1718043
1726640
1737457
1748467
1757784
1764207
1767569
1768542
1768365
1768459
1769913
1773263
1778473
1785136
1792722
1800802
1809248
1817900
1826421
1834287
1840845
1845560
1848116
1848638
1847931
1847343
1848445
1852578
1860583
1872687
1888262
1906057
1924584
1942427
1958403
1971852
1982751
1991674
1999653
2008045
2018392
2032012
2049747
2071810
2097531
2125345
2153147
2178703
2200191
2216606
2228180
2236224
2242752
2250185
2260835
2276429
2297820
2324781
2356317
2390903
2426490
2461002
2492783
2520948
2545417
2567155
2588051
2610401
2636273
2666965
2702476
2741378
2780971
2817869
2848849
2871622
2885398
2891100
2891083
2888516
2886807
2888799
2896196
2909535
2928249
2950832
2975162
2998920
3019876
3035828
3044961
3045987
3038322
3022236
2998510
2968530
2934034
2896698
2857778
2817905
2777031
2734623
2689914
2642127
2590864
2536262
2478880
2419631
2359703
2300480
2243446
2190215
2142313
2100835
2066241
2037952
2014173
1992143
1968604
1940488
1905843
1864500
1818367
1771041
1727176
1691403
1667043
1655284
1655040
1663412
1676404
1689857
1700401
1705995
1705948
1700866
1691994
1680638
1667991
1654962
1642153
1630143
1619660
1611461
1606137
1603874
1604277
1606357
1608713
1609811
1608468
1604232
1597605
1589995
1583510
1580253
1581781
1588612
1599792
1613139
1625669
1634280
1636689
1632041
1621080
1605952
1589746
1575766
1566637
1563736
1567061
1575429
1586988
1599763
1612101
1622876
1631524
1637800
1641672
1643173
1642311
1639346
1634804
1629413
1624013
1619382
1615865
1613251
1610874
1607896
1603812
1598635
1592748
1586974
1582141
1578894
1577525
1577966
1580087
1583823
1589318
1596877
1606666
1618498
1631644
1644797
1656333
1664738
1668858
1668261
1663396
1655291
1645407
1635296
1626271
1619249
1614688
1612741
1613289
1616102
1620995
1627865
1636580
1646989
1658692
1670823
1682067
1690732
1695017
1693522
1685663
1671853
1653853
1634443
1616777
1603697
1596992
1596949
1602138
1609944
1617137
1620793
1618896
1610885
1597890
1582346
1567557
1556952
1553465
1558843
1573200
1594910
1620680
1646102
1666543
1678060
1678437
1667771
1648392
1624420
1600807
1582126
1571551
1570260
1577362
1590212
1605391
1619607
1630257
1635982
1636753
1633467
1627426
1620120
1612889
1606755
1602460
1600582
1601352
1604570
1609681
1615793
1621920
1627148
1630975
1633390
1634954
1636534
1639008
1642770
1647535
1652343
1655883
1656954
1654872
1649836
1642823
1635370
1629144
1625389
1624700
1626848
1630949
1635792
1640204
1643331
1644663
1644085
1641824
1638527
1635224
1633495
1635452
1643369
1659418
1684990
1720031
1762582
1809018
1854331
1893248
1921179
1935267
1934921
1921607
1898476
1869708
1839445
1811079
1786810
1767596
1753328
1743306
1736365
1731228
1726618
1721529
1715176
1707125
1697434
1686489
1674872
1663235
1652117
1641740
1631998
1622732
1613907
1605837
1599315
1595468
1595308
1599345
1607164
1617422
1628064
1636777
1641707
1641873
1637445
1629684
1620389
1611335
1603746
1598142
1594345
1591670
1589220
1586337
1582956
1579631
1577217
1576725
1578871
1583849
1591159
1599752
1608222
1615042
1618900
1619003
1615210
1608028
1598562
1588287
1578691
1571033
1566215
1564732
1566989
1573527
1585731
1606059
1638155
1686702
1756781
1853181
1979487
2137253
2325469
2540469
2775981
3023404
3272486
3511831
3729411
3913192
4051423
4133221
4149299
4092726
3960180
3753072
3478420
3149378
2784655
2406934
2040412
1707820
1427504
1211329
1063502
980854
954508
972183
1020827
1088497
1165607
1245508
1323964
1398524
1467842
1531107
1587699
1637348
1680067
1716011
1745390
1768159
1783752
1791231
1789679
1778796
1759639
1734824
1708313
1685007
1669602
1665778
1675374
1697935
1730625
1768894
1807254
1840386
1863968
1875443
1874522
1863208
1845378
1825865
1809531
1800495
1801137
1811745
1830480
1853911
1877829
1898233
1912257
1918831
1918629
1913718
1906830
1900484
1896380
1894970
1895643
1897277
1898739
1899615
1900225
1901586
1904954
1911257
1920599
1932355
1945331
1958231
1970201
1981064
1991547
2002875
2016302
2032573
2051625
2072612
2093940
2113889
2130955
2144255
2153668
2159784
2163820
2167434
2172424
2180451
2192797
2210050
2231932
2257227
2283856
2309434
2331829
2349742
2363287
2374054
2384724
2398242
2416910
2441863
2472650
2507418
2543501
2578171
2609438
2636495
2659594
2680011
2699486
2719805
2742386
2768144
2797401
2829991
2865192
2901779
2938099
2972094
3001540
3024486
3039692
3047018
3047644
3043947
3039044
3036269
3038444
3047227
3062855
3084051
3108209
3131762
3150668
3161152
3160181
3145959
3118169
3078052
3028273
2972465
2914373
2857600
2804891
2757759
2716445
2679970
2646413
2613374
2578315
2539139
2494646
2444731
2390268
2333185
2275940
2221018
2170419
2125364
2086090
2052091
2022361
1995756
1971331
1948543
1927195
1907295
1888840
1871734
1855809
1840798
1826587
1813519
1802452
1794490
1790525
1791077
1795674
1802623
1809370
1813076
1811505
1803777
1790765
1775186
1760871
1751653
1750103
1756739
1769667
1785009
1797869
1803735
1799760
1785642
1763611
1737673
1712554
1692461
1680033
1675975
1679372
1688481
1701511
1717236
1735094
1754994
1776754
1799389
1820968
1838930
1850593
1853804
1847698
1833091
1812222
1788284
1764663
1744204
1728736
1718964
1714550
1714501
1717588
1722730
1729051
1735895
1742761
1749218
1754799
1758913
1761057
1761002
1759020
1756003
1753378
1752925
1756284
1764456
1777452
1794030
1811913
1828137
1839710
1844355
1840998
1830001
1813226
1793476
1773967
1757709
1746949
1742868
1745532
1754112
1767099
1782595
1798465
1812553
1822812
1827717
1826421
1818767
1805563
1788419
1769612
1751705
1737271
1728337
1726094
1730735
1741577
1757033
1774854
1792524
1807569
1818021
1822741
1821699
1815991
1807621
1799157
1792953
1790764
1793302
1799922
1808724
1817115
1822537
1823108
1818121
1808283
1795558
1782582
1772035
1765887
1764881
1768630
1775787
1784471
1792744
1799175
1802791
1803149
1800077
1793539
1783668
1770702
1755272
1738628
1722561
1709169
1700461
1697887
1701728
1711017
1723676
1737119
1748921
1757311
1761535
1762065
1760339
1757983
1756381
1756214
1757453
1759460
1761467
1762976
1763990
1765106
1767280
1771543
1778648
1788928
1802084
1817292
1833274
1848475
1861201
1869724
1872451
1868303
1857027
1839411
1817611
1795027
1775603
1763201
1760795
1769695
1789303
1817196
1849624
1882533
1912489
1937113
1955384
1967293
1973602
1975363
1973507
1968904
1962397
1954964
1947680
1941459
1936623
1932672
1928320
1921800
1911364
1896054
1876067
1852888
1828899
1806583
1787835
1773513
1763279
1755843
1749600
1743331
1736598
1729706
1723426
1718615
1715665
1714302
1713782
1713091
1711438
1708650
1705416
1703204
1703556
1707676
1715966
1727758
1741361
1754424
1764471
1769437
1768159
1760606
1747800
1731634
1714264
1697677
1683304
1671729
1662786
1655901
1650481
1646225
1643492
1643222
1646422
1653710
1664889
1678721
1692987
1704868
1711823
1712134
1705522
1693278
1678039
1663078
1651773
1647169
1651824
1668034
1698085
1744586
1810772
1900379
2017168
2164209
2342935
2552215
2787761
3041905
3303918
3560675
3797800
4000877
4156484
4252967
4281186
4234950
4111513
3912181
3643127
3315820
2946984
2557855
2172622
1815787
1509183
1269210
1104756
1016147
995994
1030921
1104225
1198763
1299273
1394098
1475981
1542006
1592663
1630835
1660438
1685373
1708834
1732672
1757176
1781292
1802993
1820026
1830301
1832607
1827037
1814858
1798250
1779861
1762339
1747958
1738429
1734704
1737090
1745182
1757872
1773215
1788731
1801905
1810753
1814325
1813027
1808644
1803933
1801803
1804421
1812501
1824880
1838943
1851374
1858969
1859924
1854405
1844549
1834035
1827087
1827404
1837092
1856246
1882794
1912976
1942402
1967066
1984158
1992665
1993389
1988583
1981240
1974371
1970617
1971472
1977287
1987683
2001689
2018218
2036324
2055263
2074485
2093368
2110982
2126137
2137510
2144052
2145455
2142282
2136244
2130043
2126729
2129105
2139024
2157061
2182428
2213138
2246471
2279653
2310528
2337705
2360758
2380197
2397140
2413140
2429720
2448136
2469421
2493986
2521537
2551397
2582504
2613543
2643341
2670992
2696037
2718586
2739173
2758709
2778212
2798572
2820323
2843544
2867981
2893032
2917749
2941014
2961541
2978092
2989636
2995568
2996046
2992154
2986048
2980511
2978686
2983413
2996368
3017449
3044496
3073260
3098103
3112903
3112297
3092903
3053996
2997586
2928242
2852055
2775308
2703213
2638934
2583375
2535404
2492693
2452529
2412665
2371925
2330016
2287238
2244113
2201034
2158132
2115335
2072776
2031160
1991799
1956517
1927102
1904875
1890282
1882523
1879592
1878857
1877628
1873725
1865884
1854034
1839168
1822856
1806631
1791614
1778216
1765958
1753703
1740011
1723876
1705115
1684617
1664209
1646230
1633057
1626431
1626968
1634065
1645964
1660173
1673972
1685093
1692161
1694748
1693318
1688872
1682717
1676123
1670099
1665225
1661648
1659204
1657602
1656465
1655643
1655338
1656025
1658215
1662321
1668496
1676247
1684393
1691234
1695059
1694585
1689443
1680282
1668675
1656859
1647277
1641836
1641616
1646623
1655939
1667902
1680478
1691651
1699716
1703445
1702105
1695724
1684976
1671140
1656070
1641883
1630701
1624454
1624319
1630652
1642839
1659403
1678267
1697132
1713834
1726739
1734971
1738525
1738083
1734766
1729864
1724520
1719493
1715217
1711688
1708549
1705357
1701658
1697204
1691927
1685980
1679734
1673771
1668629
1664759
1662505
1661988
1663121
1665608
1669031
1672712
1676125
1679048
1681596
1684463
1688819
1695885
1706618
1721185
1738704
1757179
1773742
1785259
1789067
1783751
1769603
1748627
1724155
1700033
1679896
1666466
1660917
1662941
1671034
1682923
1696104
1708337
1717734
1723093
1723909
1720114
1712141
1700763
1687068
1672267
1657643
1644500
1633859
1626553
1623226
1624158
1629431
1638887
1651977
1667752
1684931
1702075
1717716
1730671
1740170
1745794
1747479
1745400
1739897
1731534
1721142
1709957
1699680
1692074
1688627
1689973
1695577
1703689
1711500
1715736
1713593
1703671
1686271
1663350
1638119
1614273
1595020
1582562
1577776
1580157
1588274
1600354
1614576
1629480
1644100
1657838
1670331
1681349
1690645
1697875
1702820
1705525
1706192
1705428
1704250
1704058
1706539
1713174
1725012
1742367
1764629
1790330
1817227
1842770
1864709
1881725
1893501
1900647
1904537
1906725
1908261
1909319
1909215
1906630
1900314
1889584
1874781
1857350
1839393
1822908
1809183
1798261
1788932
1779125
1766710
1750325
1729867
1706751
1683562
1663337
1648800
1641423
1641158
1646513
1654795
1662901
1667956
1667830
1661570
1649611
1633460
1615399
1598037
1583898
1575048
1572696
1577220
1588123
1604166
1623483
1643884
1663103
1678759
1688517
1690546
1683741
1668086
1644915
1616943
1587972
1562240
1543493
1534099
1534453
1542862
1556012
1569889
1581016
1587224
1588342
1586003
1582793
1581319
1583342
1588949
1596528
1603249
1606188
1603622
1596030
1586862
1582524
1591475
1622945
1685383
1785074
1925058
2104635
2319856
2563890
2827663
3100545
3370867
3626369
3854342
4041803
4175903
4244704
4238202
4149765
3977597
3726026
3406330
3036521
2640102
2243710
1874040
1554498
1302221
1126070
1026050
994296
1017232
1078418
1161400
1251889
1338843
1414792
1475552
1519501
1546943
1559707
1561081
1555557
1548292
1544419
1547958
1561023
1583042
1610939
1640011
1665114
1682208
1689323
1686939
1677802
1665959
1655567
1649726
1649789
1655166
1663685
1672394
1678348
1679614
1675825
1668268
1659819
1654155
1654863
1664521
1683978
1711903
1744754
1777433
1804446
1821126
1824886
1815899
1797221
1774038
1752467
1738000
1734152
1741735
1758700
1781038
1803886
1822849
1835349
1841152
1842070
1841131
1841525
1845523
1853749
1865049
1876876
1886465
1891787
1892276
1889149
1885016
1883141
1886361
1896360
1913142
1935027
1959283
1982895
2003499
2020003
2032847
2043856
2055683
2071053
2092067
2119495
2152588
2189376
2227124
2262957
2294523
2320395
2340217
2354537
2364545
2371853
2378186
2385143
2393980
2405574
2420524
2439056
2461096
2486350
2514341
2544481
2576111
2608594
2641189
2672938
2702755
2729424
2751800
2769223
2781875
2790926
2798656
2808034
2822005
2842662
2870500
2904219
2940825
2976295
3006509
3028299
3039946
3041513
3034535
3021485
3004989
2987258
2969676
2952671
2935900
2918326
2898533
2874899
2845853
2810204
2767336
2717587
2662223
2603286
2543443
2485400
2431394
2382703
2339511
2300860
2265034
2230024
2193980
2155509
2113958
2069360
2022372
1974252
1926767
1881978
1842019
1808697
1783096
1765220
1753880
1746828
1741230
1734371
1724469
1711075
1695272
1679308
1665679
1656478
1652643
1653493
1656890
1659726
1658801
1651566
1636903
1615284
1588837
1560858
1535189
1515517
1504813
1504770
1515597
1535957
1563174
1593650
1623587
1649594
1669249
1681419
1686211
1684670
1678334
1668635
1656699
1643216
1628831
1614355
1601087
1590896
1585690
1586957
1595306
1609875
1628309
1647270
1663043
1672413
1673593
1666564
1653136
1636467
1620172
1607514
1600654
1600163
1605060
1613257
1622062
1628920
1631994
1630521
1624812
1616016
1605720
1595405
1586233
1578646
1572443
1566925
1561268
1554908
1547908
1541134
1536069
1534441
1537798
1547068
1561972
1581035
1601712
1620864
1635627
1644017
1645351
1640434
1631124
1619836
1608810
1599806
1593761
1591106
1592092
1596981
1606198
1619925
1637652
1657823
1677682
1693663
1702304
1701150
1689562
1669185
1643603
1617557
1595736
1581622
1576766
1580487
1590286
1602807
1614687
1623418
1627829
1628026
1625119
1620595
1615978
1612440
1610664
1610913
1613099
1616988
1622025
1627534
1632717
1636487
1637700
1635234
1628190
1616189
1599577
1579490
1557786
1536874
1519148
1506629
1500538
1501106
1507450
1517893
1530379
1542898
1553891
1562609
1569022
1573582
1576981
1579857
1582696
1585637
1588742
1592051
1595670
1599714
1604382
1609747
1615478
1620916
1625039
1626634
1624783
1619187
1610327
1599481
1588502
1579280
1573223
1570935
1572099
1575694
1580449
1585335
1589868
1594356
1599697
1606948
1616987
1630057
1645564
1662197
1678321
1692313
1703040
1710117
1713913
1715462
1716286
1717897
1721585
1728259
1738102
1750650
1764911
1779533
1793094
1804232
1811751
1814901
1813537
1808002
1799038
1787662
1775003
1762091
1749671
1738215
1727894
1718498
1709485
1700226
1690217
1679173
1667229
1654923
1643134
1632775
1624383
1617958
1612758
1607400
1600467
1590891
1578473
1564157
1549793
1537781
1530373
1528967
1533690
1543283
1555452
1567460
1576890
1582148
1582627
1578688
1571427
1562244
1552282
1542240
1532459
1522990
1513825
1505237
1497761
1492055
1488726
1488004
1489576
1492638
1496170
1499319
1501541
1502908
1504096
1505947
1509094
1513663
1519282
1525122
1530135
1533455
1534674
1533974
1532383
1531696
1534595
1544849
1567262
1607435
1671603
1765863
1895087
2061992
2266260
2503693
2766226
3042242
3317828
3578163
3808649
3995916
4128428
4196665
4193386
4113861
3956484
3723944
3424113
3070738
2683292
2285598
1903542
1561799
1280433
1072303
941650
884208
888864
940089
1020916
1115798
1212424
1302333
1380907
1446448
1499037
1539620
1569474
1589921
1602704
1609942
1614083
1617573
1622189
1628588
1636240
1643589
1648793
1650336
1647804
1642284
1636195
1632863
1635560
1646284
1665014
1689427
1715428
1738033
1752730
1756890
1750423
1735792
1717291
1699886
1687700
1682881
1685333
1693102
1703126
1712414
1719022
1722539
1724152
1726139
1730890
1740235
1754906
1774259
1796343
1818254
1836834
1849157
1853229
1848533
1836163
1818784
1800342
1785277
1777651
1780290
1794276
1818592
1850243
1885090
1918761
1947443
1968641
1981524
1986822
1986537
1983206
1979495
1977639
1979205
1985103
1995596
2010408
2028879
2049964
2072380
2094926
2116479
2136188
2153594
2168734
2182036
2194286
2206597
2220121
2235796
2254422
2276419
2301708
2329829
2360030
2391371
2422783
2453365
2482495
2509797
2535244
2559027
2581521
2603168
2624420
2645781
2667709
2690478
2714142
2738542
2763172
2787318
2810160
2830850
2848948
2864314
2877072
2887530
2896030
2902895
2908167
2911868
2914006
2914524
2913648
2911702
2909077
2906097
2902699
2898292
2891642
2881056
2864566
2840321
2807062
2764473
2713611
2656655
2596732
2537296
2481246
2430317
2384789
2343281
2303216
2261736
2216452
2166212
2111444
2054137
1997109
1943287
1895093
1853915
1819880
1792345
1770214
1752278
1737531
1725057
1713928
1702912
1690446
1674978
1655367
1631392
1603980
1575121
1547588
1524254
1507338
1497861
1495468
1498503
1504537
1510974
1515674
1517301
1515746
1512054
1507938
1505409
1505987
1510314
1517766
1526410
1533461
1535983
1531660
1519711
1501345
1479643
1458976
1444075
1438682
1444511
1460691
1483921
1509305
1531436
1545831
1549954
1543812
1529894
1512283
1495609
1483801
1479141
1481947
1490756
1503068
1516202
1528207
1538190
1546202
1552850
1558597
1563298
1565923
1564827
1558302
1545313
1526148
1502574
1477622
1454733
1436855
1425671
1421110
1421541
1424386
1427112
1428014
1426620
1423720
1420980
1420171
1422515
1428118
1436076
1444825
1452814
1459060
1463473
1466785
1470019
1474131
1479557
1485942
1492220
1496980
1498944
1497404
1492422
1484861
1476055
1467524
1460490
1455604
1452987
1452422
1453534
1456018
1459794
1464975
1471591
1479260
1487108
1493905
1498227
1498651
1494157
1484370
1469770
1451784
1432582
1414632
1400379
1391785
1389847
1394663
1405451
1420623
1438006
1455236
1469932
1479980
1483673
1480067
1469144
1451894
1430468
1407931
1387881
1373766
1368241
1372474
1385834
1406062
1429699
1452799
1471899
1484746
1490578
1490119
1485066
1477436
1468805
1459860
1450145
1438378
1423326
1404589
1383032
1361151
1342702
1331556
1330795
1341689
1362905
1390792
1420223
1445853
1463450
1470844
1468546
1459285
1446928
1435171
1426501
1421587
1419209
1417025
1412687
1404686
1393115
1379677
1367229
1359003
1357587
1364322
1379108
1400460
1425811
1452222
1477085
1498517
1515399
1527464
1535188
1539294
1540627
1540024
1538161
1535714
1533596
1532907
1534984
1541103
1552221
1568562
1589119
1611785
1633797
1652197
1664538
1669556
1667588
1660403
1650596
1640815
1632998
1627733
1624191
1620555
1614656
1604682
1589666
1569782
1546230
1520863
1495670
1472255
1451666
1434467
1420843
1410673
1403707
1399540
1397548
1397020
1397219
1397497
1397349
1396546
1394928
1392375
1388882
1384241
1378172
1370494
1361345
1351346
1341529
1333219
1327739
1325921
1327840
1332729
1338928
1344409
1347190
1345891
1340074
1330394
1318586
1306874
1297584
1292736
1293589
1300260
1311791
1326431
1341947
1356179
1367457
1374761
1377815
1376962
1372935
1366631
1358809
1349918
1340111
1329590
1319085
1310260
1306180
1311558
1332285
1374784
1445151
1548192
1686642
1860779
2068332
2304554
2562523
2833284
3106059
3368578
3607137
3807073
3953427
4032164
4031673
3944436
3768816
3510024
3180574
2799731
2391781
1983631
1601900
1269780
1004273
814719
702263
660657
678138
739823
830113
934725
1041757
1142255
1230159
1301794
1355521
1391536
1411705
1419513
1419697
1417647
1418366
1425464
1440124
1460855
1484012
1505128
1520391
1527592
1526842
1520241
1511049
1502638
1497304
1495667
1496744
1498499
1498629
1495663
1489549
1481810
1475115
1472559
1476579
1488256
1506916
1530444
1555923
1580314
1601191
1617434
1629163
1637388
1643487
1648588
1652985
1655970
1656071
1651837
1642561
1628909
1613150
1598750
1589629
1589259
1599696
1621011
1651135
1686357
1722123
1754085
1779012
1795302
1803075
1803889
1800174
1794686
1789977
1788245
1791171
1799869
1814813
1835656
1861062
1888843
1916087
1939518
1956362
1965155
1966222
1961843
1955812
1952837
1957259
1971805
1996968
2030866
2069625
2108382
2142571
2169095
2187010
2197689
2204311
2210829
2220923
2237087
2260056
2288858
2321405
2355189
2388037
2418792
2447466
2474994
2502589
2531237
2561334
2592402
2623288
2652488
2678610
2701016
2719854
2735802
2749857
2763104
2776293
2789692
2803246
2816846
2830425
2844107
2858182
2872697
2887141
2900179
2909753
2913326
2908361
2892880
2866004
2828296
2781660
2728951
2673487
2618408
2566189
2518241
2474682
2434566
2396269
2357861
2317638
2274564
2228456
2180184
2131335
2083684
2038832
1997812
1960660
1926508
1893923
1861330
1827626
1792495
1756496
1720926
1687348
1657132
1631184
1609734
1592488
1578834
1568085
1559626
1552894
1547380
1542550
1537883
1533026
1527897
1522763
1518238
1515120
1514028
1515038
1517566
1520217
1521246
1518938
1512152
1500607
1485189
1467676
1450380
1435834
1426219
1423032
1426832
1437134
1452574
1470923
1489506
1505597
1516867
1521810
1520168
1512907
1502015
1489995
1479177
1471020
1465772
1462552
1459646
1455221
1448138
1438430
1427325
1416940
1409762
1407773
1412045
1422403
1437408
1454821
1472289
1487762
1499877
1508138
1512833
1514702
1514620
1513315
1511203
1508349
1504540
1499475
1493042
1485394
1477037
1468648
1461011
1454837
1450498
1448064
1447435
1448426
1450855
1454593
1459653
1465933
1473123
1480593
1487437
1492698
1495672
1496213
1494990
1493369
1493094
1495727
1502137
1512094
1524162
1535910
1544550
1547665
1543773
1532795
1515950
1495587
1474729
1456270
1442453
1434476
1432340
1435002
1440660
1447343
1453512
1458255
1461315
1463074
1464170
1464927
1465389
1465265
1464155
1461880
1458733
1455649
1453962
1454922
1459168
1466410
1475353
1483978
1490079
1491775
1488148
1479496
1467134
1453038
1439284
1427649
1419395
1415035
1414487
1417187
1422110
1428054
1433734
1437990
1440015
1439528
1436839
1433036
1429680
1428225
1429805
1434863
1442981
1453049
1463521
1472884
1479983
1484221
1485614
1484737
1482575
1480213
1478685
1478879
1481299
1486042
1492786
1500856
1509260
1517021
1523340
1527848
1530618
1532179
1533276
1534753
1537283
1541137
1546264
1552260
1558596
1564917
1571104
1577365
1584279
1592809
1604102
1619131
1638303
1661122
1686076
1710663
1731755
1746404
1752447
1749271
1738188
1722287
1705726
1692630
1686062
1687250
1695024
1706186
1716226
1720512
1715399
1698994
1671477
1634960
1592818
1548840
1506593
1468888
1437583
1413719
1397568
1388961
1387289
1391682
1400925
1413340
1427003
1440003
1450689
1457917
1461330
1461410
1459075
1455455
1451559
1447975
1444781
1441602
1437898
1433489
1428552
1423718
1419951
1418349
1419714
1424221
1431502
1440722
1450831
1460793
1469771
1477253
1482938
1486575
1487888
1486634
1482630
1475997
1467176
1456928
1446369
1436690
1428890
1423464
1420471
1419528
1420464
1424164
1433154
1451958
1486787
1544723
1632575
1755671
1916437
2113600
2342060
2593262
2855830
3116456
3361187
3576360
3749166
3868168
3923964
3909664
3821656
3660244
3430557
3142811
2812056
2457301
2099639
1760194
1457786
1206662
1015335
886208
815939
796823
818833
871332
944429
1029751
1120660
1211943
1299375
1379325
1448554
1504499
1545758
1572595
1587149
1592995
1594575
1596268
1601227
1610628
1623697
1637925
1650022
1656835
1656264
1647984
1633431
1615443
1597563
1583262
1575006
1573681
1578748
1588646
1601263
1614770
1628425
1642388
1657604
1675181
1695710
1718812
1742863
1765203
1782764
1792881
1793978
1786137
1771268
1752808
1734984
1722056
1717397
1722779
1738128
1761581
1790008
1819761
1847150
1869355
1884725
1892736
1894069
1890312
1883534
1875896
1869520
1866193
1867185
1873230
1884561
1900841
1921193
1944508
1969330
1993950
2016401
2034675
2047233
2053255
2052909
2047672
2040272
2034415
2034082
2042674
2062251
2092916
2132690
2177897
2223948
2266331
2301509
2327843
2345680
2357084
2365293
2373825
2385723
2402947
2426085
2454578
2486889
2521005
2554909
2586907
2615873
2641479
2664033
2684376
2703505
2722422
2741984
2762527
2783888
2805715
2827477
2848631
2868811
2887608
2904553
2919025
2930486
2938623
2943570
2946030
2947220
2948817
2952459
2959216
2969162
2981206
2993100
3001924
3004701
2999006
2983501
2958124
2923940
2882616
2835954
2785392
2731691
2675025
2615394
2553117
2489230
2425451
2363931
2306987
2256392
2212870
2176031
2144376
2115860
2088363
2060377
2031293
2001376
1971636
1943271
1917363
1894483
1874432
1856248
1838632
1820199
1799866
1777368
1753242
1728839
1706165
1687330
1673904
1666509
1664591
1666428
1669564
1671591
1670873
1667018
1660864
1653965
1648114
1644484
1642844
1641778
1639190
1633087
1622470
1607916
1591489
1576207
1565081
1560050
1561570
1568547
1578745
1589577
1599149
1606721
1612632
1618022
1624197
1631882
1640955
1650344
1658400
1663459
1664474
1661421
1655251
1647574
1640213
1634657
1631605
1630739
1631150
1631655
1631084
1629037
1625989
1623057
1621663
1623001
1627466
1634484
1642482
1649247
1652719
1651632
1645869
1636548
1625955
1617020
1612405
1613849
1621867
1635505
1652542
1670027
1684966
1694859
1698032
1694021
1683373
1667417
1648127
1627755
1608584
1592748
1582195
1578380
1582087
1593427
1611685
1635278
1661932
1688851
1713130
1732160
1743838
1746680
1740179
1724933
1702522
1675379
1646636
1619761
1597914
1583425
1577495
1579989
1589370
1603175
1618597
1632960
1644167
1651053
1653373
1651497
1646173
1638196
1628414
1617654
1606945
1597462
1590319
1586438
1586169
1589023
1593712
1598462
1601488
1601575
1598493
1593074
1587088
1582787
1582195
1586631
1596323
1610356
1626972
1643927
1659111
1670905
1678256
1680710
1678397
1671848
1661886
1649521
1636042
1622838
1611253
1602411
1597044
1595292
1596803
1600712
1606005
1611913
1618012
1624241
1630666
1637246
1643474
1648304
1650414
1648434
1641560
1629947
1614876
1598607
1583805
1572977
1568183
1570595
1580487
1597468
1620733
1649372
1682532
1719312
1758509
1798334
1836405
1869844
1895705
1911771
1916938
1911647
1897904
1878746
1857667
1837802
1821079
1807947
1797309
1786991
1774398
1757503
1735584
1709394
1681115
1653823
1630606
1613821
1604506
1602098
1604830
1610207
1615515
1618659
1618449
1614743
1608278
1600161
1591552
1583355
1576123
1570098
1565416
1562361
1561292
1562554
1566309
1572253
1579425
1586310
1590962
1591507
1586604
1575859
1559917
1540671
1520823
1503209
1490332
1483834
1484201
1490686
1501593
1514514
1526971
1536974
1543307
1545735
1544882
1541942
1538353
1535440
1534235
1535308
1538644
1543604
1549103
1554123
1558135
1561678
1566942
1578109
1601089
1642957
1710928
1811183
1947671
2121539
2330573
2569009
2827953
3095846
3359282
3603796
3814545
3976880
4077511
4105444
4053246
3918178
3703258
3417798
3077142
2701649
2314953
1941583
1604385
1322038
1107200
965445
895267
888931
933884
1014775
1115504
1221120
1319336
1401495
1463085
1503576
1525739
1534917
1537757
1540763
1549278
1566654
1593575
1627972
1665506
1700512
1727483
1742262
1742963
1730341
1707626
1679803
1652589
1631111
1618972
1617584
1626080
1641615
1660243
1677836
1690996
1697779
1697917
1692770
1684843
1677104
1672502
1673318
1680787
1694903
1714397
1736951
1759501
1778765
1791934
1797277
1794545
1785107
1771867
1758678
1749476
1747282
1753540
1767749
1787767
1810350
1832062
1850226
1863514
1872125
1877532
1881745
1886536
1892810
1900301
1907920
1914308
1918441
1920227
1920625
1921665
1925789
1935004
1950310
1971340
1996350
2022562
2047022
2067226
2081689
2090206
2093890
2094879
2095687
2098729
2105727
2117706
2134971
2157280
2184094
2214615
2248042
2283594
2320373
2357254
2392959
2426118
2455459
2480026
2499561
2514603
2526516
2537302
2549252
2564627
2585269
2612048
2644732
2682045
2721890
2761662
2798727
2830752
2856174
2874399
2886015
2892698
2896642
2900185
2905107
2912236
2921086
2930044
2936861
2939366
2936223
2927455
2914467
2899482
2884891
2872301
2861859
2852061
2840022
2822242
2795721
2758846
2711884
2657050
2598060
2539150
2484074
2435281
2393393
2357076
2323493
2289023
2250268
2204915
2152389
2093973
2032399
1971271
1914140
1863737
1821305
1786654
1758294
1734006
1711675
1689816
1667929
1646449
1626490
1609289
1595751
1586359
1580996
1579152
1580200
1583482
1588255
1593708
1598897
1602558
1603247
1599621
1590862
1576900
1558629
1537907
1517186
1498934
1485154
1476864
1473895
1475209
1479192
1484252
1489153
1493376
1497026
1500623
1504838
1509955
1515550
1520558
1523489
1522690
1517029
1506343
1491577
1474760
1458777
1446798
1441528
1444701
1456642
1476072
1500295
1525751
1548643
1565626
1574263
1573604
1564251
1548038
1527635
1506151
1486554
1471240
1461767
1458866
1462244
1470704
1482325
1494665
1505061
1511117
1511105
1504310
1491474
1474504
1456208
1439802
1428055
1422700
1424183
1431511
1442521
1454509
1464831
1471480
1473468
1471057
1465594
1459110
1453821
1451847
1454692
1462964
1476242
1493183
1511768
1529647
1544627
1555035
1559784
1558523
1551767
1540552
1526053
1509407
1491518
1472894
1454000
1435468
1418156
1403365
1392546
1386920
1387332
1393879
1405884
1422068
1440756
1460142
1478634
1494853
1507653
1516066
1519305
1517053
1509515
1497638
1483114
1467987
1454470
1444413
1438783
1437477
1439448
1443114
1446843
1449305
1449824
1448572
1446407
1444618
1444568
1447344
1453578
1463227
1475461
1488830
1501430
1511079
1515699
1513728
1504559
1488859
1468648
1446767
1426316
1410107
1399964
1396526
1399210
1406640
1417129
1429059
1441322
1453356
1464886
1475646
1485081
1492302
1496110
1495349
1489448
1478732
1464503
1449119
1435611
1426976
1425702
1433089
1448900
1471549
1498290
1526045
1552057
1574424
1592448
1606438
1617430
1626721
1635431
1644298
1653459
1662642
1671357
1679155
1685799
1691356
1696064
1700163
1703776
1706872
1709086
1709876
1708634
1704701
1697549
1686789
1672128
1653473
1631028
1605054
1576105
1545265
1514053
1484560
1459129
1440015
1428931
1426498
1431991
1443210
1456854
1469196
1476809
1477271
1469803
1455674
1437713
1419686
1405370
1397541
1397301
1403854
1414691
1426279
1434864
1437503
1432780
1421119
1404589
1386451
1370313
1359211
1355006
1357880
1366407
1378131
1390085
1399606
1404971
1405770
1403021
1398763
1395442
1395088
1398841
1406593
1416977
1427546
1435568
1438653
1435214
1424859
1408570
1388494
1367659
1349989
1340108
1343220
1365137
1411827
1488712
1599907
1747288
1930070
2144663
2384755
2641981
2906531
3167848
3415093
3637213
3822761
3959943
4037061
4043566
3971476
3817288
3583579
3280121
2923682
2536793
2145109
1774405
1447229
1180293
982821
856312
795478
790008
826882
892318
973360
1058955
1140351
1211280
1267874
1308672
1334496
1348164
1354063
1357460
1363368
1375491
1395504
1422581
1453370
1483092
1506796
1520785
1523542
1516025
1501424
1484284
1469294
1460319
1459529
1467258
1482004
1501102
1521409
1539952
1554519
1563939
1568101
1567812
1564532
1559990
1555765
1553061
1552456
1554019
1557293
1561378
1565347
1568344
1569693
1569048
1566518
1562690
1558403
1554945
1553804
1556680
1565213
1580477
1602684
1631017
1663442
1696853
1727569
1752167
1768154
1774638
1772625
1764703
1754443
1745487
1740667
1741451
1747815
1758501
1771630
1785269
1797959
1809053
1818602
1827138
1835426
1844118
1853710
1864813
1878098
1894291
1913990
1937525
1964551
1994060
2024332
2053219
2078673
2099458
2115649
2128584
2140649
2154645
2172669
2195533
2222371
2250800
2277700
2300362
2317392
2329326
2338629
2349087
2364910
2389293
2423441
2466349
2514789
2564231
2609943
2648005
2676304
2694927
2705702
2711567
2715655
2720590
2727936
2737883
2749455
2760890
2770097
2775172
2774757
2768159
2755505
2737752
2716445
2693613
2671433
2651749
2635647
2623284
2613712
2604956
2594319
2578808
2555609
2522502
2478342
2423463
2359636
2289990
2218549
2149422
2086075
2030733
1983815
1944036
1908802
1874839
1839277
1800283
1757568
1712316
1666802
1623806
1585843
1554599
1530734
1513994
1503539
1498222
1496792
1497933
1500222
1502033
1501572
1497020
1486926
1470720
1448881
1423061
1395843
1370184
1348675
1333170
1324615
1323036
1327684
1337430
1350966
1366879
1383716
1399838
1413415
1422560
1425612
1421508
1410246
1392980
1371941
1349998
1330053
1314669
1305473
1303004
1306776
1315444
1327298
1340503
1353264
1363808
1370660
1372792
1369682
1361718
1350158
1337226
1325762
1318569
1317788
1324244
1337079
1353959
1371611
1386500
1395663
1397451
1391620
1379300
1362685
1344402
1326998
1312564
1302484
1297460
1297481
1302000
1309859
1319558
1329428
1337744
1343188
1345115
1343695
1339663
1334189
1328503
1323512
1319556
1316468
1313907
1311629
1309722
1308702
1309384
1312557
1318655
1327506
1338148
1349217
1359458
1367986
1374499
1379236
1382781
1385511
1387429
1387855
1385571
1379202
1367675
1350674
1328970
1304545
1280301
1259502
1245187
1239516
1243210
1255468
1274069
1295920
1317474
1335490
1347556
1352324
1349500
1339684
1324188
1304679
1282969
1261058
1241005
1224883
1214596
1211589
1216369
1228092
1244693
1263074
1279714
1291508
1296406
1293850
1284833
1271402
1256036
1241138
1228566
1219422
1214053
1212404
1214138
1218635
1224932
1231741
1237621
1241119
1241298
1238166
1232750
1226976
1223255
1223553
1228683
1238025
1249572
1260465
1267923
1270179
1266910
1259321
1249637
1240292
1233161
1229076
1227770
1228277
1229591
1231119
1233109
1236580
1242941
1253507
1268923
1289095
1313161
1339584
1366591
1392436
1415639
1434965
1449614
1459272
1463991
1464213
1460683
1454450
1446621
1438086
1429370
1420420
1410749
1399645
1386335
1370396
1351847
1331267
1309786
1288806
1269755
1253937
1242065
1234003
1228792
1224767
1219887
1212096
1199969
1183361
1163470
1142744
1124309
1111037
1104666
1105252
1111021
1118883
1125419
1127973
1125407
1118724
1110498
1103931
1101843
1105665
1115003
1127644
1140302
1149608
1153186
1150449
1142542
1131813
1120989
1112354
1106902
1104182
1102632
1100355
1095856
1088626
1079422
1070001
1062336
1058037
1057637
1060440
1064821
1068849
1071035
1070869
1069207
1068210
1071116
1081909
1104884
1144392
1204702
1289757
1403024
1546963
1722709
1929484
2163843
2419253
2685949
2951416
3201171
3419706
3591755
3703368
3743020
3702686
3578761
3373065
3093342
2753262
2371849
1972154
1579039
1216598
905355
660037
488333
390495
360224
386407
455286
552199
663118
775784
880221
968912
1037142
1082985
1107560
1114918
1111342
1104304
1101088
1107280
1125534
1154806
1190874
1227487
1257972
1277011
1281867
1272972
1253586
1228576
1203287
1182411
1168893
1163662
1165677
1172605
1181659
1190333
1196995
1201161
1203627
1205872
1209575
1216220
1226502
1240105
1255982
1272286
1286927
1298134
1304781
1306664
1304698
1300689
1297025
1296039
1299460
1308061
1321200
1337008
1352924
1366168
1374734
1377907
1376592
1373247
1370984
1372762
1380444
1394192
1412464
1432473
1451066
1465738
1475387
1480442
1482650
1484341
1487563
1493415
1502036
1512559
1523782
1534917
1545818
1557170
1570212
1586210
1605930
1629233
1654921
1681148
1705836
1727189
1744269
1757130
1766981
1775923
1786409
1800705
1820401
1846131
1877374
1912651
1949941
1987219
2022985
2056661
2088508
2119278
2149906
2180808
2211616
2241159
2267883
2290304
2307688
2320296
2329274
2336564
2344261
2353940
2366437
2381888
2399806
2419594
2440772
2463039
2486075
2509337
2531887
2552242
2568459
2578569
2580993
2574915
2560458
2538508
2510446
2477812
2441759
2403007
2361792
2318050
2271666
2222671
2171510
2119027
2066446
2015049
1965859
1919514
1876156
1835439
1796610
1758867
1721648
1684757
1648286
1612482
1577359
1542599
1507334
1470470
1431163
1389193
1345388
1301918
1261811
1228312
1204022
1190242
1186628
1191447
1201807
1214469
1226452
1235395
1239672
1238419
1231283
1218325
1200163
1178130
1154272
1131461
1113003
1101763
1099398
1105938
1119472
1136490
1152805
1164642
1169611
1167371
1159545
1149249
1140198
1135619
1137376
1145736
1159264
1175227
1190375
1201781
1207445
1206673
1200070
1189208
1176137
1162778
1150499
1139926
1130807
1122600
1114990
1108154
1102841
1100081
1100751
1105004
1111996
1119940
1126505
1129603
1128234
1122804
1115145
1108088
1104490
1106345
1114179
1126775
1141625
1155874
1167124
1174106
1177011
1177095
1176134
1175796
1176960
1179674
1183326
1187015
1190123
1192512
1194393
1196213
1198290
1200272
1201120
1199277
1193086
1181476
1164462
1143308
1120514
1099386
1083402
1075371
1076788
1087537
1106015
1129421
1154385
1177669
1196699
1209909
1216835
1217919
1214105
1206568
1196409
1184628
1172121
1159700
1148309
1138952
1132639
1130090
1131527
1136622
1144561
1154058
1163704
1172208
1178590
1182352
1183355
1181560
1177164
1170471
1161845
1151823
1141093
1130413
1120647
1112537
1106431
1102502
1100654
1100705
1102702
1107056
1114383
1125425
1140653
1159769
1181492
1203384
1222315
1235043
1239038
1233192
1218266
1196938
1173400
1152539
1138877
1135536
1143563
1161795
1187088
1214829
1240360
1260026
1271885
1276213
1275241
1272398
1271284
1274665
1283816
1298245
1315972
1334279
1350350
1361968
1367999
1368267
1363572
1355320
1345236
1335163
1326887
1321817
1320860
1324134
1330693
1338498
1344572
1345554
1338456
1321481
1294599
1259796
1220873
1182624
1149882
1126300
1113439
1110591
1115011
1122681
1129468
1132185
1129230
1120844
1108796
1095896
1085214
1079355
1079976
1087434
1101043
1119281
1139946
1160559
1178644
1191921
1198663
1197897
1189600
1174740
1155284
1133864
1113394
1096568
1085254
1080327
1081615
1088053
1097891
1109019
1119355
1127222
1131452
1131400
1127097
1119363
1109711
1100180
1092996
1090226
1093130
1101974
1116064
1134270
1155883
1181468
1213421
1256179
1315730
1398660
1510967
1656671
1837019
2049784
2289166
2545964
2808255
3062249
3293016
3485517
3625453
3700176
3699819
3618350
3454646
3213411
2905566
2547873
2161888
1772028
1403221
1078057
814198
622672
506706
461993
478098
540415
632608
738756
845241
941769
1021658
1081852
1122540
1146311
1157612
1161966
1165084
1171855
1185685
1207735
1236507
1268268
1297891
1320203
1331404
1330125
1317848
1298636
1278111
1262085
1255272
1260233
1276942
1302938
1333958
1365121
1391883
1410790
1420106
1419879
1411652
1398072
1382361
1367809
1357237
1352651
1354975
1363832
1377721
1394479
1411667
1427105
1439445
1448409
1454641
1459398
1464091
1469665
1476400
1483946
1491554
1498424
1504100
1508824
1513611
1519847
1528840
1541372
1557344
1575647
1594367
1611187
1623991
1631491
1633368
1630500
1624681
1618266
1613787
1613355
1618302
1629062
1645120
1665402
1688486
1712758
1736782
1759577
1780598
1799598
1816644
1832102
1846616
1860987
1876290
1893542
1913551
1936786
1963381
1993091
2025231
2058879
2093109
2126958
2159527
2190094
2217997
2242843
2264394
2282822
2298744
2313277
2328036
2344731
2364872
2389404
2418339
2450562
2483967
2515734
2543030
2563712
2576744
2582404
2582198
2578607
2574498
2572420
2574315
2581074
2592611
2607998
2625764
2644022
2660480
2672662
2678372
2675861
2664068
2642895
2613174
2576507
2534798
2489791
2442647
2393723
2342627
2288461
2230537
2168972
2104972
2040630
1978686
1921888
1872093
1829971
1794818
1764662
1736983
1709427
1680181
1648434
1614524
1579666
1545574
1514185
1487225
1465806
1450264
1440197
1434669
1432192
1431015
1429557
1426659
1421720
1414680
1405957
1396354
1386676
1377599
1369480
1362393
1356261
1350923
1346286
1342534
1340149
1339559
1341141
1345066
1351015
1358329
1366202
1373678
1380005
1384629
1387244
1387642
1385736
1381522
1375052
1366658
1357173
1347939
1340632
1336929
1338262
1345340
1357700
1373774
1391109
1406781
1417872
1422090
1418291
1406685
1388788
1367172
1345090
1325875
1312378
1306507
1308985
1319236
1335486
1355098
1375019
1392175
1404123
1409308
1407250
1398608
1384872
1368125
1350682
1334895
1322881
1316319
1316285
1323077
1336194
1354314
1375272
1396391
1414900
1428413
1435372
1435432
1429576
1419873
1409098
1400108
1395235
1395801
1401877
1412369
1425307
1438309
1449080
1455888
1457742
1454517
1446972
1436596
1425297
1415091
1407645
1404064
1404665
1409103
1416272
1424609
1432378
1438256
1441618
1442485
1441425
1439131
1436188
1432854
1429002
1424234
1418221
1411132
1403769
1397412
1393535
1393344
1397429
1405491
1416205
1427551
1437124
1442648
1442347
1435342
1421751
1402854
1380956
1359028
1340185
1327277
1322254
1325858
1337352
1354776
1375440
1396557
1415777
1431531
1443213
1450855
1455024
1456464
1455907
1453945
1451132
1448126
1445719
1444787
1446110
1450209
1457332
1467300
1479440
1492865
1506591
1519727
1531699
1542235
1551298
1559045
1565757
1571693
1576896
1581234
1584227
1585179
1583347
1578168
1569555
1557977
1544460
1530459
1517387
1506154
1496895
1488906
1480942
1471567
1459664
1444851
1427645
1409348
1391486
1375361
1361629
1350074
1339628
1328931
1316953
1303387
1289110
1276101
1266978
1264234
1269470
1282785
1302432
1325105
1346588
1362768
1370655
1369088
1359038
1343325
1325791
1310284
1299695
1295361
1296791
1302080
1308656
1314048
1316562
1315673
1311996
1306845
1301713
1297763
1295500
1294718
1294659
1294364
1292983
1289876
1284844
1278153
1270555
1263039
1256928
1253925
1256017
1265544
1285318
1318449
1368239
1437920
1530490
1648377
1792959
1964456
2161713
2381598
2618511
2864297
3108219
3337482
3537981
3695517
3796893
3831070
3790569
3672338
3478593
3217163
2901318
2549190
2182462
1824398
1497412
1220476
1006876
862640
786200
769361
799105
860292
938151
1020256
1097626
1165058
1220585
1264466
1298198
1323993
1344429
1362142
1379689
1399292
1422316
1448733
1476600
1502537
1522360
1532259
1530176
1516448
1493891
1467091
1441284
1421138
1409724
1408032
1415048
1428389
1445314
1463517
1481338
1497878
1512763
1525791
1536621
1544828
1549944
1551923
1551304
1549090
1546630
1545286
1546036
1549317
1555009
1562594
1571560
1581574
1592448
1604216
1616772
1629744
1642390
1653657
1662483
1668171
1670633
1670497
1668968
1667496
1667489
1669941
1675212
1683041
1692640
1702884
1712667
1721148
1727761
1732508
1735924
1739019
1743155
1749691
1759751
1774025
1792459
1814174
1837675
1861283
1883643
1904142
1923125
1941801
1961882
1985086
2012463
2043981
2078459
2113834
2147684
2177872
2202998
2222599
2237205
2248144
2257007
2265440
2274937
2286828
2302281
2322355
2347843
2379209
2416292
2457887
2501738
2544740
2583536
2614919
2636563
2647609
2649038
2643645
2635480
2629095
2628585
2636634
2653982
2679390
2709917
2741620
2770403
2792782
2806583
2810965
2806179
2793317
2773838
2749296
2721135
2690713
2659258
2627933
2597755
2569275
2542321
2516016
2488802
2458535
2423180
2381301
2332393
2276977
2216553
2153463
2090399
2029940
1974157
1924491
1881564
1845163
1814280
1787248
1762089
1736868
1710167
1681545
1651766
1622578
1596323
1575382
1561414
1554862
1554594
1558129
1562151
1563333
1559207
1548733
1532488
1512602
1492053
1473822
1460334
1452910
1451424
1454518
1460081
1465857
1470008
1471551
1470412
1467252
1463046
1458729
1454799
1451215
1447643
1443774
1439597
1435585
1432680
1432080
1434791
1441283
1451167
1463158
1475272
1485455
1492055
1494162
1491840
1485926
1477750
1468731
1460013
1452339
1446091
1441512
1438817
1438247
1440297
1445428
1453782
1464991
1478041
1491098
1501946
1508562
1509362
1503720
1492301
1476988
1460560
1446070
1436125
1432309
1434602
1441531
1450559
1458681
1463392
1463436
1459033
1451661
1443682
1437495
1434864
1436445
1441818
1449889
1459396
1469297
1479136
1488764
1498212
1507300
1515247
1520779
1522578
1519607
1511841
1500560
1488028
1477082
1470472
1470030
1476152
1487593
1501698
1515069
1524207
1526279
1519758
1504762
1483049
1457802
1432938
1412435
1399573
1396255
1402656
1417156
1436761
1457828
1476854
1491088
1499160
1501034
1497772
1491071
1482707
1474043
1465933
1458717
1452524
1447480
1443819
1442081
1443039
1447420
1455534
1467031
1480880
1495583
1509405
1520760
1528366
1531605
1530532
1525735
1518137
1508945
1499415
1490877
1484552
1481360
1481818
1485821
1492641
1500800
1508312
1513076
1513359
1508337
1498511
1485759
1473090
1464000
1461757
1468606
1485102
1510169
1541196
1574673
1606875
1634780
1656429
1671127
1679216
1681781
1680191
1675741
1669409
1661930
1653802
1645589
1637778
1630804
1624812
1619388
1613635
1606087
1595143
1579442
1558403
1532509
1503500
1474011
1446957
1424889
1409447
1401170
1399542
1403381
1411107
1421164
1432260
1443156
1452553
1459123
1461473
1458545
1449858
1435997
1418570
1399977
1382858
1369600
1361785
1359860
1363145
1370159
1379129
1388273
1396260
1402199
1405750
1406981
1406433
1405011
1403992
1404917
1409215
1417891
1431190
1448427
1467962
1487627
1505228
1519100
1528570
1533995
1536594
1538084
1539926
1542987
1547162
1551671
1555618
1558815
1562769
1571178
1589997
1626774
1689604
1785645
1919529
2092299
2301120
2539482
2798036
3065655
3330500
3581099
3806614
3996795
4141777
4231908
4258116
4212794
4091024
3892307
3621938
3291871
2920475
2531096
2149592
1801223
1507357
1282952
1134900
1061858
1055456
1102219
1185979
1290280
1400360
1504509
1594725
1666659
1719232
1754171
1775224
1787332
1795670
1804824
1817851
1835662
1856859
1878066
1894822
1902705
1898724
1882308
1855531
1822894
1790273
1763768
1748256
1746323
1757847
1780228
1809076
1839283
1866183
1886557
1899168
1904674
1905121
1903226
1901601
1901991
1904998
1909983
1915450
1919798
1921684
1920668
1917484
1913913
1912382
1915262
1924153
1939477
1959965
1982655
2003523
2018610
2025021
2021849
2010596
1995071
1980526
1972304
1974415
1988681
2014359
2048256
2085615
2121350
2150925
2171067
2180060
2177657
2164982
2144366
2119189
2093814
2073019
2061499
2062896
2078978
2109041
2149634
2195252
2239710
2277415
2304938
2321710
2329953
2333734
2337802
2346115
2360745
2381691
2407352
2435387
2463587
2490476
2515603
2539257
2561860
2583545
2604101
2623160
2640527
2656722
2673027
2691355
2713904
2742207
2776588
2815773
2857147
2897321
2932881
2961288
2981451
2993830
3000273
3003430
3005996
3009958
3016193
3024296
3032993
3040676
3046061
3048760
3049533
3050087
3052478
3058389
3068378
3081157
3093643
3101498
3099999
3085197
3054954
3009458
2951128
2884069
2812999
2742227
2674856
2612487
2555264
2502503
2453275
2406885
2363122
2322092
2283812
2248038
2213981
2180197
2145013
2106994
2065395
2020470
1973519
1926724
1882733
1844154
1813097
1790806
1777519
1772431
1773983
1780181
1788882
1797977
1805708
1810716
1812033
1809141
1801795
1790176
1774999
1757568
1739660
1723355
1710902
1704067
1703802
1709956
1721160
1735125
1749046
1760084
1766133
1766143
1760338
1750139
1737721
1725466
1715465
1708974
1706255
1706672
1708944
1711427
1712593
1711391
1707441
1700928
1692555
1683431
1674828
1667966
1663815
1663049
1666110
1672976
1683165
1695750
1709493
1722852
1734268
1742407
1746369
1745993
1741868
1735111
1727158
1719346
1712661
1707627
1704394
1702704
1702208
1702473
1703185
1704094
1704873
1705130
1704447
1702447
1698953
1694014
1688003
1681553
1675423
1670280
1666513
1664183
1663002
1662414
1661676
1660147
1657506
1653772
1649398
1645180
1642077
1640948
1642431
1646662
1653232
1661146
1669084
1675632
1679631
1680329
1677763
1672688
1666524
1660906
1657172
1656234
1658278
1662720
1668376
1673765
1677350
1677905
1674692
1667530
1656883
1643891
1630065
1617099
1606716
1600236
1598334
1600972
1607435
1616314
1625835
1634233
1640144
1642732
1641754
1637670
1631489
1624618
1618529
1614564
1613782
1616749
1623392
1632948
1644097
1655208
1664489
1670346
1671784
1668585
1661513
1652225
1642865
1635544
1631838
1632581
1637686
1646136
1656533
1667556
1678204
1688171
1697866
1707863
1718614
1730216
1742305
1754175
1764932
1773960
1781065
1786610
1791262
1795814
1800801
1806362
1812178
1817625
1822010
1824709
1825256
1823235
1818333
1810205
1798557
1783266
1764597
1743317
1720824
1699046
1680114
1665864
1657328
1654502
1656205
1660273
1663946
1664366
1659017
1646324
1626039
1599316
1568593
1537289
1509169
1487646
1474911
1471544
1476213
1486094
1497569
1507103
1512194
1511945
1507251
1500419
1494425
1492073
1495175
1504040
1517477
1533047
1547686
1558418
1562846
1559559
1548404
1530455
1507821
1483490
1460832
1443202
1433432
1433197
1442634
1460051
1482115
1504537
1522982
1533929
1535616
1528600
1515464
1500556
1489192
1486914
1498937
1529823
1583239
1662071
1768339
1902916
2065425
2254218
2466079
2696102
2937644
3182612
3421595
3644032
3838452
3992542
4093603
4129343
4089349
3966741
3760183
3475319
3125623
2731878
2320291
1919568
1557160
1255488
1029224
883812
815653
813850
862856
945522
1045673
1150048
1248858
1335865
1407810
1463475
1503029
1527938
1540814
1545106
1544793
1544068
1546480
1554102
1567016
1583405
1600330
1614531
1623576
1626440
1623692
1617131
1609217
1602360
1598222
1597359
1599256
1602585
1605789
1607466
1606884
1604051
1599733
1595239
1591966
1591165
1593535
1599120
1607400
1617485
1628483
1639693
1650988
1662654
1675085
1688647
1703317
1718455
1732779
1744774
1753127
1757176
1757112
1754000
1749522
1745566
1743578
1744223
1747429
1752487
1758471
1764690
1770897
1777257
1784413
1793047
1803710
1816795
1832519
1850939
1871992
1895373
1920228
1945175
1968277
1987200
1999835
2004914
2002471
1994196
1983204
1973511
1969091
1973061
1987100
2011104
2043323
2080822
2120136
2158055
2192180
2221079
2244683
2263997
2280800
2297344
2315914
2338179
2364945
2395964
2429925
2464832
2498577
2529454
2556689
2580588
2602261
2623102
2644119
2665394
2686070
2704541
2718953
2728099
2732025
2732125
2730815
2730897
2734801
2743727
2757504
2774725
2793327
2811226
2826951
2839815
2849828
2857244
2862068
2863711
2860863
2851678
2834223
2807273
2770445
2724364
2670652
2611480
2549222
2486078
2423906
2363936
2306731
2252276
2200080
2149229
2098509
2046942
1994319
1941468
1890492
1844480
1806742
1779771
1764305
1758738
1759222
1760508
1757237
1745453
1723755
1693624
1658894
1624512
1594989
1573215
1559606
1552382
1548383
1544199
1537440
1527122
1513660
1498370
1482669
1467376
1452598
1437881
1422879
1408004
1394632
1385016
1381598
1386178
1399090
1418812
1442211
1465325
1484308
1496427
1500614
1497613
1489505
1478924
1468362
1459516
1452982
1448418
1444925
1441558
1437644
1433089
1428343
1424128
1421276
1420402
1421875
1425886
1432280
1440535
1449973
1459513
1467774
1473379
1475127
1472307
1464910
1453873
1440897
1428119
1417680
1411206
1409524
1412753
1420256
1430958
1443493
1456384
1468197
1477602
1483355
1484647
1481232
1473490
1462556
1450135
1438170
1428469
1422213
1419763
1420610
1423655
1427535
1431080
1433602
1434818
1434650
1433173
1430455
1426546
1421584
1415986
1410530
1406297
1404379
1405350
1408979
1414392
1419920
1423757
1424645
1422413
1418119
1413835
1411907
1414252
1421616
1433111
1446425
1458450
1466069
1467043
1460586
1447530
1430085
1411027
1392965
1377674
1365635
1356127
1347622
1338560
1328036
1316208
1304440
1295038
1290722
1293885
1305866
1326478
1353943
1385252
1416646
1444405
1465439
1477852
1481148
1476105
1464498
1448664
1431103
1414115
1399494
1388537
1382067
1380498
1383962
1392362
1405410
1422484
1442758
1465203
1488512
1511373
1532560
1551052
1566138
1577429
1584801
1588263
1587931
1584016
1576826
1566860
1554765
1541513
1528107
1515437
1504118
1494243
1485443
1476884
1467493
1456230
1442389
1425772
1406665
1385812
1364148
1342720
1322602
1304744
1289857
1278491
1271010
1267326
1266875
1268766
1271911
1275246
1278005
1279879
1280953
1281706
1282720
1284363
1286558
1288859
1290501
1290969
1289994
1287642
1284486
1281244
1278589
1276763
1275459
1274015
1271669
1267862
1262594
1256665
1251166
1247290
1245990
1247480
1250971
1254797
1257061
1256084
1251135
1242713
1232420
1222399
1214615
1210236
1209645
1212825
1220091
1233044
1255066
1291486
1348770
1433079
1548930
1698010
1878689
2086426
2314372
2554317
2797327
3034142
3255030
3449251
3604885
3709353
3750273
3717352
3604422
3411306
3144872
2818817
2452764
2070070
1694948
1349605
1051974
814223
642228
535884
490335
497286
546421
626764
727485
838386
950246
1054990
1146112
1218974
1271210
1303201
1317892
1320447
1317134
1314032
1315757
1324417
1339414
1357843
1375517
1388260
1393080
1388995
1377281
1360907
1343862
1330027
1322302
1322159
1329572
1343258
1361164
1381010
1400774
1418831
1434136
1446027
1454031
1457849
1457357
1452767
1444722
1434194
1422673
1412102
1404503
1401653
1404763
1414161
1429208
1448368
1469454
1489889
1507117
1519143
1524826
1524135
1518147
1508752
1498525
1490024
1485527
1486796
1494685
1509138
1529276
1553685
1580660
1608455
1635535
1660661
1682950
1701841
1716953
1728030
1734943
1737772
1736948
1733508
1729038
1725590
1725498
1730892
1743229
1762971
1789459
1821027
1855355
1889924
1922423
1951119
1974853
1993038
2005773
2013619
2017843
2020423
2024001
2031688
2046629
2071359
2106989
2152828
2206214
2262776
2317433
2365487
2403389
2429585
2444730
2451283
2452746
2452785
2454390
2459456
2468637
2481612
2497636
2516071
2536614
2559277
2584135
2611140
2639467
2667555
2693017
2713033
2724864
2726356
2716349
2694814
2662817
2622288
2575744
2525930
2475246
2425603
2378451
2334563
2294192
2257156
2222746
2189914
2157455
2124174
2089052
2051273
2010399
1966377
1919602
1870722
1820630
1770428
1721296
1674418
1630851
1591582
1557276
1528190
1504179
1484754
1469091
1456069
1444432
1432942
1420671
1406996
1391684
1374947
1357155
1338766
1320331
1302313
1285146
1269178
1254830
1242800
1233928
1228933
1228258
1231720
1238340
1246456
1254007
1258905
1259559
1255379
1246996
1236263
1225743
1218107
1215588
1219315
1229097
1243503
1260261
1276768
1290586
1299967
1304090
1302856
1296814
1286951
1274402
1260308
1245745
1231796
1219515
1209908
1204038
1202921
1207218
1216865
1231050
1248281
1266343
1282608
1294491
1299997
1298026
1288637
1273042
1253517
1233058
1214818
1201655
1195594
1197480
1206661
1221084
1237582
1252399
1262124
1264361
1258198
1244456
1225390
1204391
1185309
1171605
1165877
1169433
1182038
1202008
1226564
1252194
1275179
1292216
1301064
1300840
1292158
1276973
1258189
1239058
1222447
1210295
1203373
1201391
1203263
1207492
1212752
1218272
1223735
1229050
1234204
1239137
1243738
1247942
1252098
1256817
1262927
1271206
1282047
1294845
1307920
1318886
1325161
1324687
1316563
1301316
1280735
1257558
1234702
1214732
1199388
1189487
1185113
1185844
1190955
1199635
1210996
1224094
1237848
1250954
1262053
1269958
1273596
1272139
1265270
1253288
1237166
1218551
1199821
1183868
1173854
1172569
1181943
1202393
1232493
1269162
1308274
1345475
1376919
1400055
1413932
1419205
1417635
1411599
1403414
1394881
1387255
1381105
1376402
1372804
1369648
1366002
1360664
1352262
1339516
1321481
1297689
1268462
1235122
1199891
1165658
1135518
1112210
1097785
1093130
1097617
1109133
1124438
1139702
1151162
1155925
1152629
1141778
1125500
1107061
1089959
1077115
1070067
1068638
1071175
1075251
1078396
1078944
1076568
1072207
1067728
1065208
1066130
1071092
1079517
1089944
1100550
1109761
1116635
1120878
1122716
1122489
1120316
1115883
1108491
1097319
1082161
1063826
1044043
1025317
1010378
1001570
1000015
1005461
1016393
1030500
1045377
1059471
1073013
1088500
1110636
1145885
1201461
1284188
1399306
1549683
1735147
1952131
2193707
2449880
2708125
2954479
3174494
3354127
3480738
3543825
3535693
3452004
3292533
3061721
2769087
2429417
2062049
1689628
1335786
1022404
766777
579408
462974
412693
417972
465068
539816
629717
725197
819648
908753
989610
1059941
1117636
1161139
1189784
1204321
1207153
1201855
1192561
1182853
1174894
1169284
1165173
1161012
1155363
1147509
1137807
1127719
1119448
1115464
1117978
1128375
1146831
1172173
1201986
1232916
1261283
1283707
1297817
1302742
1299141
1288935
1274832
1259649
1245759
1234849
1227804
1224930
1226325
1232092
1242352
1257090
1275718
1296804
1318070
1336699
1350015
1356252
1355130
1348080
1338033
1328728
1323636
1325058
1333555
1347803
1365224
1382758
1397835
1409294
1417553
1424412
1432329
1443614
1459753
1480869
1505734
1532172
1557479
1579151
1595381
1605195
1608648
1606617
1600447
1591739
1582293
1573994
1568694
1568184
1574070
1587575
1609286
1639036
1675861
1718005
1763066
1808342
1851326
1890037
1923416
1951389
1974775
1995014
2013763
2032451
2051857
2071983
2092168
2111417
2128740
2143655
2156291
2167463
2178425
2190406
2204309
2220374
2238121
2256522
2274561
2291617
2307601
2323198
2339596
2357948
2378889
2402020
2425820
2447919
2465488
2475778
2476856
2467877
2449093
2421782
2388044
2350179
2310530
2271078
2233204
2197501
2163671
2130648
2096680
2059796
2018414
1971897
1921044
1868058
1815951
1767803
1725790
1690398
1660184
1632011
1601909
1566326
1523360
1473305
1418677
1363567
1312640
1269913
1237878
1217187
1206933
1205051
1208895
1215839
1223602
1229992
1233157
1231533
1223924
1209833
1189613
1164735
1137605
1111164
1088410
1071803
1062672
1061028
1065571
1074122
1084155
1093174
1099338
1101743
1100549
1096966
1092967
1090635
1091620
1096830
1105904
1117230
1128287
1136171
1138388
1133595
1122102
1105963
1088647
1073999
1065484
1065287
1073565
1088520
1106805
1124364
1137427
1143274
1140828
1130803
1115255
1096992
1079039
1063922
1053267
1047728
1047118
1050733
1057566
1066496
1076292
1085613
1093169
1097893
1098930
1096008
1089588
1080856
1071632
1064059
1060110
1061018
1067073
1077445
1090455
1104029
1115897
1124166
1127573
1125591
1118398
1106786
1092016
1075775
1060101
1047204
1039093
1037140
1041656
1051808
1065513
1079868
1091842
1098938
1099780
1094474
1084571
1072448
1060641
1051195
1045137
1042439
1042314
1043683
1045641
1047846
1050648
1054938
1061682
1071423
1083874
1097832
1111253
1121771
1127175
1126031
1117962
1103837
1085708
1066287
1048287
1034069
1025237
1022389
1025209
1032699
1043318
1055177
1066346
1074946
1079523
1079136
1073665
1064072
1052222
1040671
1032048
1028443
1030664
1037992
1048463
1059344
1068099
1073155
1074452
1073463
1072580
1074445
1081041
1093161
1110142
1130288
1151632
1172291
1190952
1207080
1220706
1231900
1240511
1246104
1247898
1245277
1238255
1227649
1215119
1202923
1193403
1188465
1188985
1194689
1204136
1214946
1224299
1229450
1228269
1219398
1202474
1178202
1148111
1114351
1079417
1045996
1016735
994033
979782
975180
980393
994157
1013832
1035481
1054389
1065831
1066049
1053255
1028089
993614
954663
916852
885157
862979
851677
850368
856584
867101
878890
889825
898970
906603
913622
921031
929465
939054
949387
959486
968259
974805
978643
979778
978506
975399
971023
965849
960200
954054
947205
939537
930970
921570
911634
901687
892694
886280
884943
892433
913884
955493
1023957
1125507
1264789
1443754
1660663
1909800
2181563
2463118
2739884
2996936
3220176
3397128
3517557
3573431
3558786
3469903
3305594
3068304
2765268
2409391
2019490
1619375
1235568
894023
616423
416922
300255
261453
287496
360101
459353
567139
669416
757377
827128
878632
914398
937909
952635
961670
967650
972563
977918
984703
993096
1002459
1011600
1019204
1024214
1026371
1026483
1026289
1027893
1033295
1043794
1059495
1079128
1100174
1119658
1134796
1143875
1146641
1144253
1139045
1133787
1130862
1131600
1135968
1142646
1149522
1154455
1155889
1153293
1147374
1139941
1133387
1130261
1132698
1142063
1158553
1181053
1207407
1234670
1259476
1278777
1290627
1294490
1291632
1284972
1278384
1275829
1280309
1293126
1313537
1338935
1365516
1389321
1407416
1418615
1423528
1424170
1423116
1422620
1424089
1427724
1432891
1438585
1444252
1450244
1457778
1468730
1485120
1508487
1539255
1576657
1618894
1663397
1707373
1748162
1783710
1812693
1834569
1849519
1858430
1862723
1864167
1864845
1866942
1872442
1882917
1899450
1922560
1952112
1987271
2026713
2068855
2112059
2154688
2195218
2232453
2265419
2293672
2317271
2336734
2352777
2366488
2379104
2391734
2405354
2420529
2437097
2454180
2470138
2482716
2489367
2487855
2476910
2456597
2428390
2395064
2360288
2327842
2300763
2280804
2267953
2260425
2255038
2247685
2234253
2211341
2176895
2130359
2072756
2006493
1934924
1861884
1791158
1726220
1669749
1623619
1588700
1564580
1549638
1541023
1535056
1527746
1515604
1496310
1468995
1434449
1395021
1353936
1314675
1280331
1253129
1234201
1223423
1219756
1221472
1226627
1233448
1240522
1247002
1252564
1257459
1262220
1267438
1273566
1280691
1288315
1295470
1300809
1302801
1300222
1292360
1279250
1261877
1241967
1222063
1205087
1193832
1190555
1196353
1210900
1232526
1258277
1284464
1307413
1324184
1333205
1334489
1329633
1321267
1312339
1305399
1302231
1303614
1309328
1318454
1329622
1341172
1351573
1359392
1363352
1362789
1357755
1349069
1338590
1328862
1322793
1323155
1331823
1349413
1374881
1405582
1437683
1467038
1489994
1504162
1508867
1505211
1495797
1483946
1472895
1465105
1461739
1462633
1466551
1471610
1475974
1478438
1478751
1477605
1476404
1476740
1479877
1486280
1495439
1506165
1516796
1525693
1531918
1535319
1536677
1537522
1539540
1544055
1551615
1561745
1572981
1583302
1590561
1592999
1589695
1580776
1567387
1551468
1535250
1520874
1509978
1503540
1502027
1505402
1513253
1525113
1540451
1558460
1577999
1597547
1615317
1629501
1638639
1641882
1639300
1632103
1622460
1613028
1606365
1604266
1607163
1613933
1622224
1629112
1631798
1628569
1619255
1605364
1589817
1576100
1567443
1566081
1572398
1585005
1601200
1617552
1630816
1638663
1639950
1635028
1625390
1613339
1601637
1592954
1589532
1592893
1603660
1621333
1644412
1670503
1696548
1719252
1735671
1743950
1743787
1736502
1724792
1712263
1702417
1698036
1700446
1709244
1722581
1737603
1751236
1760898
1764752
1761977
1752546
1736949
1715958
1690470
1661416
1630046
1597821
1566522
1538102
1514209
1495904
1483383
1475919
1472087
1470077
1468063
1464670
1459164
1451444
1441938
1431403
1420507
1409824
1399864
1391133
1384183
1379537
1377502
1378117
1380989
1385234
1389680
1392969
1394015
1392135
1387175
1379482
1369567
1357825
1344566
1329985
1314432
1298568
1283471
1270725
1261969
1258653
1261580
1270522
1284053
1299847
1315346
1328118
1336292
1339033
1336359
1328962
1318104
1305482
1293333
1284654
1283332
1294423
1323748
1377175
1459882
1575415
1724981
1907138
2117901
2351050
2598572
2851260
3099180
3332050
3539363
3710446
3834460
3900846
3899935
3824159
3669555
3437267
3134646
2775935
2381789
1977449
1589919
1244570
961798
754330
626156
572738
582755
640708
729695
834032
940705
1039821
1124793
1191925
1239805
1269157
1282798
1285069
1281225
1276588
1275457
1280112
1290123
1302774
1314032
1319934
1318059
1308314
1293138
1276843
1264343
1259869
1265929
1282666
1307919
1337710
1367323
1392446
1409962
1418264
1417414
1408923
1395274
1379280
1363559
1350110
1340185
1334367
1332511
1334020
1338282
1344528
1352080
1360497
1369524
1379028
1388919
1399173
1409782
1420755
1431995
1443301
