# --------------------                                                         
# Bandwidth: 0.05~200Hz                                                        
# Notch Filter: 50Hz ON                                                        
# Resolution: 24bit                                                            
# Sample Rate: 600SPS                                                          
# Start Time: 2026-03-09 00:18:15                                              
# Duration: 00:00:35 (total samples: 21050)                                    
# --------------------                                                         
225576
195563
163995
198627
169314
94727
57052
22788
-9586
-62378
-91546
-96431
-157800
-182226
-176545
-211612
-175214
-150694
-218514
-261750
-311408
-333115
-263300
-263247
-351700
-396551
-421224
-425706
-368403
-353241
-391258
-342932
-266376
-306953
-356405
-299323
-217786
-200421
-266233
-306128
-312152
-382777
-391694
-365300
-394496
-340505
-273783
-257308
-221140
-256791
-337408
-344341
-345643
-352279
-280965
-246783
-284742
-266679
-285861
-349095
-305100
-293646
-370537
-330798
-290065
-348264
-310253
-299966
-359933
-269394
-218305
-326207
-376188
-340741
-278815
-227569
-266366
-323538
-271174
-219422
-251113
-218972
-152022
-193296
-259647
-219624
-139911
-176338
-229122
-182865
-185583
-235541
-232632
-209440
-188043
-166030
-139092
-126977
-122736
-123559
-153098
-141306
-83344
-72927
-100949
-95266
-104156
-175999
-192207
-157728
-131784
-77193
-42695
-44870
-99093
-118025
-46256
-90804
-166399
-138468
-108149
-73704
-97826
-119562
-40632
5484
-18486
-74801
-92894
-70806
-86374
-68251
-59864
-126320
-124576
-72676
-104554
-132413
-99795
-107469
-55249
63023
15435
-61460
-40996
-98167
-116550
-37047
-42620
-48253
-1794
-6545
-253
-12923
-131236
-180509
-119162
-93511
-98748
-128629
-119115
-79823
-145093
-180848
-136887
-106565
-38118
-2750
-36272
-51124
-52839
-37951
-27841
-71533
-135363
-162524
-138582
-98355
-38435
13622
-4445
-17629
-18324
-37088
-27252
-50424
-82963
-77866
-88896
-65847
-14275
11320
16216
-2742
-5376
-4719
-29031
-18532
734
-32002
-65424
-82353
-116701
-153107
-167476
-141142
-128770
-169259
-183903
-139964
-37094
42578
7833
553
97415
139721
59224
19612
62191
36227
3859
18551
31021
74075
76366
53177
63255
43347
12355
18720
93260
156539
102502
30156
19897
7495
-21120
-9484
-5071
-32033
-22293
-24405
-31890
-12044
-8199
-5445
-62293
-103535
-42033
-26696
-22754
-4982
-3769
24596
-6898
-13028
19112
-8501
31851
42643
-54732
-108416
-122032
-73688
-23103
-60592
-41512
3490
5862
4478
-61220
-90340
-78542
-109418
-79005
-58566
-95752
-76725
-9682
16488
-6477
1806
-9175
-16442
47854
8276
-62958
-4690
26729
12849
38174
65065
140808
351327
560392
669025
787124
840599
833008
930923
1052647
1094661
1087163
1067261
965288
748286
518928
296335
96011
-97291
-331881
-632608
-1095332
-1501354
-1624226
-1726435
-1811569
-1695141
-1569343
-1512444
-1400000
-1255323
-1163025
-1062667
-866976
-671140
-538859
-416820
-317974
-300674
-319444
-230716
-117183
-104277
-26294
85936
112663
185640
252111
241843
248687
259249
244577
185539
165157
216065
154823
78964
143686
199299
212638
209631
185921
194033
174756
137174
163290
176574
153710
206655
299254
295634
237455
223306
241465
242039
249215
265970
210815
216190
297270
216521
144777
242271
313077
329115
328960
314754
320395
313550
331740
363399
297560
226248
273316
340880
296290
242795
291497
263821
195260
265631
306252
272923
283047
286229
299079
351359
372236
347515
302140
298529
357339
360865
325050
362096
394791
392964
433462
439266
389536
408170
479914
514737
490218
462313
480451
495042
536256
600444
594210
609426
653045
608192
568295
578480
545800
564505
675765
688354
666972
693485
631525
618638
699352
714870
711096
706785
693660
632130
503303
500896
603502
573931
479982
502663
561862
524097
428217
406410
472120
476779
398318
348115
332401
276796
188501
157553
150240
62142
-34107
-16975
20008
-7915
-21842
-66092
-144217
-144308
-142091
-177181
-189548
-206803
-223082
-256515
-293414
-226628
-168727
-219159
-216489
-195766
-299876
-367362
-312365
-292230
-271758
-225898
-262397
-275039
-246357
-261053
-262438
-286432
-324262
-300794
-300052
-347785
-334018
-314998
-381537
-377307
-313797
-347202
-329126
-239614
-249451
-265995
-269234
-317211
-312935
-339950
-395528
-324383
-280540
-342121
-327803
-292860
-341261
-306880
-245022
-296174
-292643
-263035
-279168
-232022
-215697
-274757
-273715
-209562
-195812
-226091
-200371
-190424
-263076
-296375
-253789
-218055
-222560
-211958
-155908
-125947
-157930
-194286
-153814
-99152
-155947
-187623
-97879
-71892
-115316
-97569
-75235
-113175
-188346
-237993
-218482
-178399
-165619
-156747
-125452
-114956
-133667
-99745
-38032
-57352
-111193
-77922
8941
22998
-36940
-50899
-16405
-17560
-12677
-9651
-51639
-69482
-106260
-103754
-2814
-30949
-64209
12382
-30925
-35441
7637
-68716
-42957
3446
-72505
-63262
-9788
-20458
-12611
4965
13086
48210
46000
-43648
-104518
-72075
-43704
-54490
-76558
-82498
-59004
-42956
2550
33229
-27421
-41765
-12310
-27209
-18339
-49670
-100019
-22822
-18721
-143486
-82953
51375
2222
-34572
25476
5175
-52961
-52349
-24881
12425
5728
-33342
-64003
-109188
-106521
-104545
-134050
-48628
47960
14975
-12531
4406
-27438
-79664
-84819
-60872
-32553
-374
-16950
-80968
-113876
-101188
-44652
-17911
-39876
-16432
-35291
-59406
-20568
-47175
18563
141826
123675
127348
41047
-130045
-138477
-153237
-125856
625
-36663
-106525
-59945
-63176
-98358
-48210
4177
22511
57359
16834
-70030
-61960
-965
36662
32318
12252
54412
113857
78387
4954
-11873
48787
104622
89982
133812
150519
44740
29791
70679
44612
34289
50196
13491
-33429
9247
24809
-24288
29180
108626
22463
-82437
-30362
-12801
-40715
23452
10736
-59791
-36564
-2417
-12733
-41278
-53445
-48782
-49107
-33712
-46011
-82900
-19544
41332
-31290
-54997
-18906
-47500
-36178
4756
8633
40955
72567
76489
58442
-13660
-82199
-85781
-43928
-44137
-109814
-88920
-4143
-35632
-97076
-28581
33545
-61060
-111888
-33643
18930
86280
117507
68130
132648
277810
382115
477482
565303
647063
739915
826249
954995
1110119
1124080
1099058
1108471
977635
781589
534406
273953
140455
-30362
-265907
-607704
-1121819
-1469990
-1592476
-1671655
-1664050
-1628144
-1604342
-1522813
-1368448
-1190090
-1103458
-1034775
-902166
-746395
-524736
-373293
-349902
-294597
-184336
-25917
38602
-29963
-10068
25126
-2130
28438
92075
169437
201204
196028
282477
309225
193164
132892
163547
213464
299949
339954
242224
201639
288002
298311
228292
164787
152190
183173
199788
204982
183234
239707
312112
227461
238125
313533
244722
206836
193631
166638
183872
229279
255136
199737
213214
242917
179977
228639
262350
197328
243584
302102
299925
342043
362214
324563
337196
361942
347713
363102
332050
290474
353960
364888
321311
333204
326745
290732
252997
265354
341036
393142
382774
341606
370649
403467
356899
393924
505443
544676
528996
498940
451684
446964
499999
513304
509044
501618
473137
565519
715916
700907
602861
588870
618986
651753
655323
641431
753905
823185
700403
659011
671330
626551
670813
706038
676950
698389
692953
626583
582191
561945
562480
586340
608664
601927
547853
462271
399765
405964
385790
308349
297134
275446
233104
262081
218908
149113
183119
179514
99584
63016
22999
-83229
-82630
-47528
-140016
-149220
-127040
-160788
-98957
-120222
-233318
-221714
-222920
-271811
-255525
-281624
-322312
-296957
-282087
-252012
-269011
-326681
-276634
-280121
-362498
-363834
-355642
-322777
-276419
-316905
-369796
-387102
-363966
-358576
-405623
-359284
-293389
-298519
-289014
-349063
-407946
-334016
-288429
-310106
-301763
-360517
-460431
-419017
-357846
-321582
-232420
-296709
-416744
-321422
-195890
-212621
-283879
-325053
-329669
-356983
-364519
-310641
-338218
-379232
-303673
-302438
-368089
-367386
-331788
-212457
-157072
-248698
-237328
-174483
-182320
-177104
-196116
-224000
-244600
-293949
-241487
-124253
-113041
-123261
-107676
-144224
-167456
-130640
-116791
-132980
-104679
-77265
-107187
-123395
-135708
-177863
-196804
-180261
-123875
-88200
-132115
-159772
-131740
-86115
-33073
-25150
-53735
-56887
-42223
-18767
-25815
-64054
-60197
-72073
-131749
-115455
-29893
-9916
-41215
-60755
-81272
-65015
-14630
25165
52885
28356
-55040
-98429
-9606
76436
10399
-4318
50340
-39508
-99343
-82796
-135948
-113390
-84647
-142589
-116711
-83071
-87472
-53162
-40174
-1380
33687
-16161
-34194
-58205
-75960
48030
73075
-71416
-125273
-124180
-115850
-72776
-85569
-132227
-142530
-66601
62560
70125
-33412
-80815
-102483
-132807
-46946
73204
100705
104675
26940
-66582
-54109
-100888
-121638
-39934
-39036
-41558
-37367
-71185
-41382
-31659
-35694
2873
-35995
-99909
-99999
-73802
-41372
-56513
-75734
-47579
-33504
-4229
-19257
-120412
-124632
-36711
-6505
-26784
-12444
34528
5143
-28743
53536
92969
40719
38803
32744
-33469
-49089
-6560
23889
58261
76678
59728
80987
130643
138479
107403
62262
24449
16913
20310
-26191
-81313
-58572
-28646
-25520
11537
15187
-32300
-37997
-27138
-29364
-5902
8359
-55575
-118947
-44600
12156
-58192
-47649
-7248
-42652
-22544
5479
-9417
-31138
-48876
-12667
21
-38421
-57131
-91668
-91239
-5403
16613
-70620
-95036
-33586
-11977
-42042
-102667
-163365
-173190
-117463
-74413
-118903
-103739
-39121
-64183
-36060
12700
-38639
-50878
-5257
25912
50796
68008
81313
155488
310782
435897
540536
648496
672289
686156
817052
1048773
1122781
1022471
1072129
1045271
807437
645539
424206
165813
18885
-183356
-477188
-914842
-1383718
-1586419
-1638135
-1729773
-1801053
-1761960
-1620363
-1469538
-1337965
-1232106
-1125439
-944014
-757654
-615699
-488400
-427794
-377930
-248910
-126533
-83524
-69281
-27476
-22056
-28662
101002
211618
167685
173435
245397
266199
257692
228779
230180
235597
166527
142635
177755
188097
184554
119295
101662
227442
264914
167497
141860
166217
149513
167891
235564
281498
300604
321286
309794
245899
220898
232537
240191
267732
291789
312346
275991
242160
297994
265941
196250
227009
219830
164357
172293
251308
286610
284002
365329
385266
334900
363593
332855
277353
307652
317043
316736
284947
218718
262763
326366
305158
316044
349469
359875
368201
369841
387525
372499
377005
457973
471038
480021
532098
512026
509369
517480
469966
471937
518726
528650
529259
548196
529345
557258
689482
739262
683537
608508
592456
675871
689847
644021
636437
611304
589599
600720
645455
674054
628417
569708
579412
639184
658297
689061
726503
619496
528314
555102
516476
473531
472602
417351
404923
454901
448781
412868
384104
300893
186545
145609
178292
162979
85090
64417
74052
47906
23753
-28663
-113955
-162057
-183509
-204161
-181377
-164193
-244488
-274067
-197594
-236066
-303337
-231077
-224131
-298258
-245550
-179074
-240036
-293080
-305031
-380060
-432688
-364134
-279058
-249731
-240082
-247601
-270466
-284356
-300802
-327544
-339216
-334104
-302160
-234315
-231698
-279351
-274257
-326482
-379795
-306253
-266531
-308673
-366052
-396109
-373074
-346307
-359100
-410080
-339238
-212671
-262427
-289680
-238577
-262494
-268203
-263165
-261866
-205711
-179843
-235660
-269338
-227834
-227494
-247836
-205679
-187775
-211228
-217353
-183669
-186587
-255905
-263055
-217069
-172997
-160262
-225087
-265264
-217710
-158118
-165194
-183790
-121148
-103975
-173094
-154121
-89554
-113396
-146112
-128744
-122911
-118947
-65029
-87476
-211558
-197335
-107499
-86267
-71948
-103013
-106224
-59134
-29542
59010
87539
-6647
-42585
-23149
-21123
-9651
7727
12196
-13366
-43780
12423
100886
49270
-46463
-4534
17137
-66549
-48890
24810
-38497
-66559
86003
154448
36426
-61446
-61756
-3618
30134
6536
-22337
-83132
-113202
-52599
-44596
-78972
-37147
23458
16186
-22752
-27766
-53199
-44413
39748
-11824
-106319
-48908
-27194
-59610
-16454
4878
9845
19438
-54224
-65704
12661
-19487
-76982
-14811
42956
7083
-23105
-49270
-92886
-74187
-62488
-60538
8788
29347
-5203
-9136
-45471
-79598
-49661
-24389
4654
34125
31731
14026
-48268
-69414
-10835
-5347
-49837
-99993
-97008
-33167
-45307
-60627
-35348
-67851
-44996
14024
5893
12467
8921
-1317
-8255
-57085
5719
97938
38996
15065
51653
41224
21971
-20025
-35513
7229
21774
33034
94160
126843
57767
-9531
34033
85211
81918
99201
121087
104955
85792
94405
89633
57820
99874
154246
89859
51605
83370
59551
-2133
-63140
-77168
-33198
11042
40030
46523
39523
41092
67235
59713
23473
42078
13712
26330
146055
74724
-69617
-37027
11792
11309
21161
11607
-11535
5331
-5960
-32352
47757
75815
-5073
-6545
31992
38388
5648
-67810
-64384
-20572
-41251
-53225
-32398
-23063
-67510
-110031
-20864
45146
-3659
11508
36293
46457
81772
43373
69295
151122
108556
70738
51879
78332
308321
509632
584318
703650
783311
873420
1033125
1076443
1069058
1122279
1104844
963014
771701
576862
396049
199321
-67210
-322884
-569840
-968559
-1374559
-1594953
-1709422
-1688858
-1541391
-1465385
-1481019
-1429509
-1274848
-1109914
-976588
-861862
-719646
-581370
-454069
-265787
-196883
-249765
-155333
-28011
15422
64010
41608
1345
105845
231246
243944
220960
170544
130544
227754
283727
211245
215598
237280
265330
300464
227922
258878
359301
316710
237444
154717
122567
152741
142817
179341
268650
289534
234066
217635
283383
266842
185320
209349
268039
286321
298994
289729
285876
296078
265132
260577
307816
307393
298264
311743
262903
193363
187438
223412
265852
276434
264932
285989
302779
297183
300803
334777
396147
402660
422944
475022
397972
348791
374665
316171
338935
401320
381986
411455
391402
364694
446897
444204
419188
471196
471148
429827
388530
403989
470913
497732
548764
627983
661937
645992
593307
569591
561280
624383
817794
847990
690666
639515
613744
540888
539975
577223
596168
635028
673776
662481
665532
634571
557929
568419
566651
575147
653798
611492
541953
567747
579859
561991
499986
433202
434398
412974
357627
349029
332354
281511
230147
201912
185421
110705
63217
69807
22798
11446
38199
-23653
-76232
-39032
-61047
-160320
-207913
-203471
-183166
-215522
-265171
-256923
-312798
-348682
-272845
-274157
-334854
-324337
-307006
-347000
-336219
-263773
-270994
-291894
-301442
-380889
-363002
-269372
-314080
-333435
-266377
-293537
-307332
-283473
-308238
-291072
-298811
-316125
-266029
-303349
-306625
-234834
-298819
-300064
-252026
-371130
-419338
-343963
-316412
-338851
-358227
-289840
-245000
-307061
-344275
-347640
-289390
-248787
-327475
-325891
-269692
-289240
-301597
-300373
-281339
-252102
-245735
-214950
-209534
-266327
-244671
-176980
-197160
-221382
-204752
-176570
-164768
-213111
-238873
-204029
-162491
-105816
-82253
-145152
-200890
-199941
-215241
-224199
-171833
-155578
-198147
-172118
-119717
-112445
-69317
-46323
-103833
-85488
543
-33440
-104085
-79003
-84969
-152671
-158878
-140002
-159992
-133522
-72918
-58328
-44133
-31023
-28186
-5330
9052
-16149
-62404
-19211
12756
-77374
-64968
-1155
-32163
-43729
-21462
-5734
-30517
-40286
-28749
-104860
-153257
-94591
-22711
6737
-53177
-131518
-140829
-127472
-85871
-8476
-5818
-52807
5067
34091
-75922
-111540
-78483
-94044
-106177
-86770
-30584
-27685
-96292
-133103
-143449
-122832
-117706
-145068
-120380
-97370
-60120
913
-16611
-23599
40523
52933
-54347
-147036
-79035
31158
19514
-54455
-40349
-34979
-142590
-161129
-104406
-98492
-70968
-52568
-26470
6558
-24013
-39268
-53491
-88929
-75346
-51132
-63190
-83812
-67826
-35675
-58322
-111180
-103251
-45770
-1762
33243
27017
-46133
-66171
-28738
-77082
-128834
-91356
-55407
-26953
-34313
-101721
-96326
-39977
-70473
-98910
-21731
34140
-30780
-76397
-8554
45282
47081
32436
-8110
-25393
-8825
16867
30172
7985
-53045
-67766
30938
46492
-36737
-12172
49951
82686
97351
46834
-41516
-73701
20246
69287
-1782
25875
63265
-57423
-142822
-86452
-41951
-67550
-60812
-46826
-107009
-128147
-51032
-14298
-4224
52904
31654
2164
71069
65391
30390
12670
-85572
-93511
-48487
-91858
-74289
-69626
-123425
-89307
-58430
-42602
-788
-30964
-79407
-108111
-110311
-38413
-53530
-144955
-118131
-64744
-36203
-18942
-63715
-81287
-59023
-36627
-32512
-84168
-80745
4326
56371
50956
44180
144899
317740
436970
545037
657985
713705
754098
848130
961438
977592
951367
1009389
967793
811858
692496
441440
167879
-14319
-307585
-603505
-955688
-1435330
-1633441
-1614681
-1725469
-1748910
-1599836
-1498977
-1446742
-1390088
-1258419
-1057565
-890618
-683039
-456996
-398292
-457771
-394763
-213373
-143980
-124418
-2237
65969
71476
147163
186066
172977
207623
240757
246363
250563
224578
180236
157655
128549
140580
242405
257589
172106
213304
262452
166289
129976
163496
158899
182412
212555
213247
224350
221169
167975
183937
289802
290362
245000
263858
248380
240011
273075
287108
302030
310669
262766
172773
176253
272250
287206
279697
298150
259205
240091
253704
272977
315234
321166
311842
305625
278713
275640
283677
268132
239042
250985
350342
419708
388947
371844
417692
403145
301786
328073
385598
311225
333880
365581
319257
415344
519268
514702
522728
593853
642220
565033
550591
619947
556987
529370
631367
671060
630320
590443
604491
613834
577798
627164
748791
814541
811028
747319
656948
626681
642406
623445
621863
660689
660844
643705
633135
605611
592638
626045
642257
589890
557024
511865
458272
531526
552133
492970
505000
425686
327509
339250
304421
231851
156776
110873
169535
183821
118545
79365
-1501
-52758
-23188
-93505
-172804
-147991
-185870
-245948
-207309
-139334
-103947
-130575
-211332
-278604
-284296
-243201
-206466
-240742
-307009
-279974
-266501
-336190
-303862
-258026
-298095
-270751
-308283
-416270
-347140
-285874
-325444
-240659
-182902
-278832
-297542
-278456
-365049
-384062
-281073
-225678
-207913
-193451
-281270
-343623
-296519
-312992
-310124
-251529
-297073
-311352
-274398
-334741
-382468
-370761
-317624
-255339
-305465
-308229
-190256
-203532
-318693
-300542
-177262
-163199
-199234
-176971
-240236
-303441
-271119
-257398
-274491
-310090
-298624
-234053
-221636
-225593
-184533
-149514
-122405
-87677
-140844
-224883
-205839
-177225
-187863
-173648
-139339
-154277
-206240
-167195
-108380
-86644
-24897
-44683
-152880
-194417
-133641
-52375
-53364
-78671
-91059
-107003
-65300
-53024
-120980
-90014
-13516
-52794
-46772
30283
13772
-46916
-74112
-92168
-108786
-70922
-23366
-35480
-16451
3923
-16860
-12147
-51384
-81650
-28762
-46945
-104992
-81204
-83802
-146521
-152277
-128027
-122033
-54381
11953
-5410
-32100
-68610
-80130
-32301
-17650
-42321
-61709
-41357
-54926
-131868
-62944
78984
103446
99108
45425
-19217
6507
-16734
-56191
-25520
-22463
14200
20273
-111522
-135569
-75873
-112572
-114351
-114213
-157813
-136906
-133525
-163460
-120741
-76039
-88495
-110405
-129304
-79913
-2325
-8688
-11064
14676
29290
38621
-18216
-67975
-2218
43994
-44050
-105929
-40701
-15298
-68461
-39452
8086
-51251
-92908
-86957
-131788
-157948
-70970
15418
-50870
-141188
-138015
-144685
-125129
-30095
29689
18840
2782
5813
-8575
13985
59927
17511
-9648
1014
-3233
79134
123257
49394
52876
102712
78214
44037
3057
-33571
21193
87677
86923
55156
11466
-31410
-59056
-34150
-32522
-57300
12560
-11119
-133131
-115550
-114898
-125361
-34647
-60930
-120141
-113578
-151308
-85526
-4332
-26057
42601
66439
-27465
-88494
-182541
-200602
-112954
-101999
-69774
-26523
-49035
-13905
5289
-56499
-86163
-84326
-75964
-24104
40429
18383
-62898
-101624
-114351
-61162
9414
-67704
-116210
-72679
-156168
-204799
-105594
-57555
-52722
-18503
49994
87730
9543
-6239
159532
354201
485102
555784
609609
686282
767347
880596
977860
953852
966769
1029211
914462
748954
559513
265177
51355
-195676
-486329
-720082
-1164273
-1582882
-1660528
-1729001
-1840608
-1749992
-1573808
-1490699
-1428302
-1302484
-1130516
-1001221
-953721
-863603
-654388
-428793
-354734
-319102
-125928
-43860
-143857
-76529
84827
121169
108574
100282
105535
129244
154735
162858
138695
156476
190839
139295
61997
53186
109029
180231
232659
208905
167301
189985
134455
61620
122159
167289
151067
142845
180746
265708
283082
232819
187711
158593
171755
195516
174043
163785
246693
322205
293696
273292
282835
268349
261639
230320
216683
251466
223979
215878
250312
214057
226101
283359
266064
259902
260671
209721
213834
290102
298927
223714
206759
285819
318717
269474
286743
383133
404282
362289
386388
405550
339562
313039
359900
398655
435862
460855
466268
471207
429494
420554
497710
511904
499310
530902
487490
446146
536745
623718
623962
629312
654279
664612
696411
721764
666331
635904
678943
652025
619059
638475
585726
576106
649758
606509
550278
588889
586690
586635
587653
526753
513212
462646
389149
460625
462650
385442
396511
324534
243507
296770
316249
258920
202675
172586
149944
109488
75927
58294
42639
-15309
-112459
-116546
-80717
-139854
-171563
-164940
-200990
-271402
-363490
-312752
-217639
-271751
-290544
-288292
-340055
-323212
-281379
-292950
-347737
-374661
-320794
-280602
-363667
-465254
-406822
-313330
-346170
-393660
-370069
-303007
-289926
-375992
-390442
-326835
-351554
-389352
-371275
-378836
-394834
-368919
-344950
-359390
-368875
-356685
-357706
-344343
-282930
-249815
-274627
-307042
-336779
-339309
-342403
-336192
-251750
-205014
-288173
-392010
-397785
-326941
-292662
-312027
-330942
-338992
-348249
-332700
-279736
-237890
-192307
-179517
-244916
-223583
-156915
-197816
-199477
-185734
-241079
-226047
-179316
-162025
-168351
-214189
-197852
-191249
-271471
-218791
-66014
-90989
-200513
-195028
-144830
-148895
-198198
-168000
-100424
-127620
-136332
-139139
-141745
-60602
-10080
6512
-20452
-110469
-145638
-174667
-204543
-160451
-89941
-40272
-36749
-18406
31757
54711
39812
-59177
-130775
-95332
-62272
13610
82093
4698
-112803
-151870
-116754
-77493
-83633
-87558
-56211
-51093
-98747
-91030
-78285
-151254
-102160
-2767
-57819
-45124
28085
-8818
-45619
-33265
36983
86495
20738
-16362
-2018
1611
-24164
-114155
-116884
-66584
-109543
-144605
-138831
-60873
6954
-34329
-37459
-49785
-80743
-31043
-2889
-14599
-35688
-35348
-21980
-53188
-40573
-43266
-109960
-71437
-32327
-72774
-40309
-38240
-103396
-70446
-20096
-26894
-29887
-47103
-43369
-9112
-23975
-73213
-53818
36193
37887
-23316
4290
30230
-8395
-26079
-47947
-110976
-95073
-1148
-17390
-62277
-14842
-11576
-5482
55416
37049
-21770
-45728
-25972
23798
43458
76082
120829
90528
32171
51426
90473
32599
21775
95678
52559
342
43221
37339
-4206
-15045
-21896
-15511
3021
2076
-9086
-28084
-60833
-93009
-80685
-25785
-64710
-148126
-69994
25801
-36061
-71005
-17620
-5934
-7999
10822
13146
-6508
-4120
14171
-21010
-58408
-84113
-85847
-36665
-59972
-60948
3156
-51354
-99807
-44307
1137
39283
7923
-112313
-114067
-24384
7261
6628
-67545
-118540
-68144
-72851
-107518
-112589
-98765
-37631
4748
6565
24772
43358
37166
44816
112042
214698
358370
561827
666455
687499
782893
849426
911974
1000323
988705
974176
953207
823097
634523
432461
229723
-33404
-271136
-466494
-933298
-1457214
-1561998
-1511237
-1599185
-1649741
-1608856
-1544933
-1425607
-1323215
-1297010
-1203051
-1011391
-798288
-574301
-435740
-400053
-362718
-306183
-221465
-109855
-43396
-34362
32150
146530
166992
173467
216737
190911
186292
197333
117104
104076
139839
101389
152069
244916
231626
180987
125964
131908
154017
142680
243167
285075
139357
131231
286300
311325
211526
178578
232719
240892
207060
214100
201434
162546
180846
235883
250022
261593
279379
239790
276256
323699
250895
243555
214639
115054
121128
172770
222235
201196
147790
213589
234908
188166
248165
279804
210989
208880
267174
278970
287390
364840
415115
342343
276537
276527
286045
352265
361163
285567
359055
461186
430919
419417
422036
394595
389459
392318
388139
416723
548808
650055
537822
433792
511564
552597
506204
555297
652466
669596
678523
668143
607177
617399
633624
579116
564008
614560
701008
727043
655993
616760
607951
612237
639751
646411
654190
607280
538483
503058
427161
409364
417508
367667
357622
346859
340439
323865
275509
292181
266527
200010
174674
127878
128273
123991
45537
-28138
-91303
-91134
-76122
-122307
-139644
-167579
-270512
-310743
-215908
-155363
-200970
-221246
-218792
-259974
-292059
-288462
-333642
-431898
-442439
-373974
-315046
-283230
-342026
-411205
-392733
-373887
-371303
-368118
-351368
-336421
-381278
-383597
-354371
-396019
-426318
-431419
-431153
-424561
-442090
-458131
-434315
-349958
-287831
-292211
-286826
-308590
-370455
-334685
-243800
-273375
-333545
-326197
-320573
-309410
-300031
-310582
-353689
-404587
-372744
-336693
-349681
-326250
-286933
-272089
-264339
-250127
-266736
-326972
-319436
-271946
-313957
-332332
-278509
-259278
-208768
-173881
-239701
-208980
-123226
-173082
-212173
-196427
-220346
-199989
-129841
-148504
-225241
-207122
-202007
-269972
-243020
-176410
-142973
-144778
-188960
-146193
-86864
-123873
-120251
-117010
-199689
-181870
-74284
-69248
-119886
-148619
-160408
-161882
-154575
-85213
-27901
-78169
-90886
-24613
-7341
-18063
-21059
-26914
-43981
-83960
-81426
-68659
-71476
-32025
-42824
-74034
-54351
-79369
-92643
-41272
-35208
-56872
14809
39537
-94491
-126673
-62846
-76356
-49586
-18773
-67795
-103249
-109442
-117434
-138811
-141121
-97291
-49896
-26194
-28189
-53910
-88553
-83826
-55363
-72212
-91430
-68073
-47740
-93838
-152478
-113236
-79303
-135448
-130818
-27706
1791
-73897
-72390
28103
16768
-88711
-86331
-71443
-101775
-14900
60086
-3618
-25517
-18502
-73234
-18367
80523
-10852
-103558
-79731
-133181
-203615
-160376
-79867
-54779
-92435
-68941
5930
-33639
-98310
-52484
-3954
-11780
-21902
-35165
-37076
-42830
-14002
135384
171694
24295
-1500
44169
17645
27081
53184
54869
71472
71327
67440
100377
107032
34480
-16702
60490
105028
-24920
-105640
-69640
-103877
-124514
-82905
-99157
-124859
-155185
-167930
-79447
-48750
-126388
-146112
-80090
-3339
-27293
-101709
-88484
-69680
-94367
-106392
-69653
8404
20750
-23993
-15084
28075
17967
-38904
-68564
-81464
-94790
-72278
-26259
-26226
-70198
-45681
2902
-17192
-39082
-51000
-54052
-72647
-114070
-87664
-64057
-23418
127346
207696
124293
14314
57258
209692
336519
506273
633008
696450
794320
838765
877197
912216
976681
1116392
1052741
821427
605021
351877
175199
17897
-212294
-442043
-861668
-1356929
-1546058
-1565411
-1635499
-1691594
-1638627
-1518344
-1482944
-1447651
-1248553
-1052244
-946065
-772265
-589856
-529134
-458021
-316718
-251487
-217500
-91707
-7322
-30275
29255
162734
194784
191239
203460
201153
203785
142403
76751
119469
200695
181739
93506
146820
221990
196694
236092
247657
233660
310769
325413
301862
322495
272004
212258
227287
232189
219315
187625
167610
202307
211463
202995
170939
128667
174086
210351
217601
237360
228093
295203
346975
248201
186567
195312
240740
349072
343052
251058
247272
241829
204803
222113
253085
253545
272267
327545
350223
316950
331172
408804
409277
353387
346436
338580
319839
334044
343843
346549
372590
345237
302962
387744
454462
425314
473214
539681
528703
542281
529816
441087
452187
528192
536342
580668
646913
622187
595182
636394
648235
637516
671219
683207
667317
660046
643229
655099
712548
711630
645532
632192
630721
594565
580800
625152
707222
694180
629455
624874
576752
502884
455432
406013
404649
381180
319175
316544
280856
216094
197607
185884
203295
175576
113500
126249
119885
67907
41605
21720
-63117
-147957
-128240
-112686
-148055
-176966
-196847
-201853
-226673
-241349
-214916
-261785
-359174
-378145
-348519
-336216
-349671
-308144
-203661
-190946
-237255
-240666
-256225
-288087
-338702
-423938
-451590
-410591
-409280
-439680
-418539
-395997
-413259
-385019
-335201
-329666
-344555
-364408
-347426
-306708
-333846
-395370
-382174
-349837
-371162
-358064
-285362
-230366
-239392
-277772
-317329
-354165
-314755
-265019
-305824
-341839
-320468
-279532
-272317
-325743
-348063
-318735
-320977
-309931
-277593
-280224
-251848
-211121
-232622
-279142
-249773
-138939
-145955
-252617
-261342
-220827
-214202
-271335
-333662
-306224
-286443
-292269
-236234
-163441
-110797
-96642
-150975
-193130
-165616
-159664
-210833
-194882
-97282
-94052
-177753
-172652
-143920
-199595
-189958
-90862
-56709
-70257
-84996
-83035
-78582
-126799
-119597
-101310
-183269
-165467
-39741
6694
-15538
-74053
-128184
-120070
-103994
-88171
-47339
-66639
-86321
-38167
-66677
-111304
-72964
-61222
-49252
-29837
-86149
-114485
-55786
-33003
-52100
-37123
-34705
-71858
-84980
-55626
-32095
-33689
-38861
-46225
-40090
-21767
-47149
-108541
-112766
-43922
-831
-7754
-7913
13955
21350
-34377
-76092
-27337
-30946
-141863
-162827
-107075
-149360
-128683
-35580
-101685
-127683
-66717
-120513
-89694
39503
30391
-55519
-96572
-94460
-78676
-41224
-32961
-88963
-125467
-142468
-97889
-54898
-113430
-100682
-74647
-46100
53862
2272
-40515
34936
-3708
-45016
10321
33694
-24715
-62838
-5723
20975
-16292
-6743
29300
18904
-18422
-15197
38761
74294
56843
90
-43668
-17886
-2901
-11887
-4888
-92595
-161496
-76767
-49793
-99205
-90868
-126965
-167763
-118235
-101596
-76235
-15732
-37661
-101269
-157569
-171410
-138146
-103983
-79268
-89553
-114478
-88627
4686
31372
-55288
-81404
-40513
-35728
-72339
-88438
-37372
-15331
-31677
-45209
-105843
-110261
-77592
-119322
-114897
-70972
-31882
-9807
-95440
-134186
-59768
-58134
-96020
-26439
81941
68731
29026
134554
280267
381014
502558
586641
626353
742822
875584
945684
981304
1031356
1122317
1017462
739700
630575
477121
118550
-154506
-346184
-615273
-970265
-1339654
-1596070
-1705394
-1718583
-1644465
-1560756
-1529506
-1442380
-1325445
-1243573
-1107979
-978894
-853172
-620135
-439715
-395202
-339728
-256339
-178206
-92939
-59596
-61457
3829
86033
126020
134121
149768
231626
248362
178693
153816
135156
146615
184614
189606
190158
137120
89685
128354
164950
183134
192809
208914
232537
199545
163061
168146
157186
119367
134669
236290
281775
230949
181527
137780
147088
233616
259107
221204
263024
302376
280493
310408
291420
246906
295198
261901
188383
193466
207465
262363
297770
262135
247399
245727
225041
240377
273358
235497
237941
335924
353416
293367
278197
297336
334073
400466
388423
269958
213355
283079
365453
369259
396251
464096
428871
351015
384658
478399
486874
489064
498807
450161
517322
588144
549904
590139
613540
585852
621767
659849
700668
743043
717515
678694
679272
671220
715039
788889
728914
658915
662782
630799
640646
649996
565946
539463
569988
583285
631096
616244
536638
548501
561222
483587
400602
389462
401431
309719
281167
356460
240221
95050
138744
161940
95570
35903
24174
63850
109007
68454
-49079
-99878
-98620
-102666
-97828
-182626
-265544
-212345
-196265
-242046
-218100
-197174
-262608
-308126
-288251
-319816
-335036
-278193
-281626
-296830
-289552
-326867
-345284
-339105
-357001
-361814
-349986
-338438
-302449
-316158
-394918
-386639
-360608
-371822
-308804
-298803
-337914
-329862
-359892
-368722
-362354
-361006
-291934
-248093
-265563
-310258
-362186
-348517
-317556
-330656
-301795
-286594
-340585
-292616
-241955
-335245
-351771
-258231
-216125
-235371
-280684
-304126
-303177
-293369
-265410
-257773
-235350
-240617
-325515
-286482
-201894
-225547
-193644
-194010
-243122
-213718
-204642
-174103
-163855
-228955
-220770
-202246
-183918
-150950
-223686
-273272
-232692
-183224
-137902
-176266
-162991
-16686
-17033
-120986
-108049
-86604
-131280
-178897
-214485
-205812
-135106
-88026
-130095
-209774
-224302
-158456
-117629
-122944
-108719
-79033
-76756
-68896
3669
17149
-53278
-37495
1868
-8111
-16699
-28862
-5593
11522
-9301
-6413
-29886
-91220
-131977
-97696
433
14276
-16723
6909
-16736
-98202
-145117
-108996
-72731
-111079
-125345
-90137
-60285
-69742
-98117
-90668
-100562
-112583
-52461
4529
-7810
-60936
-121006
-152987
-139126
-112900
-97858
-63448
-11855
29189
63948
54697
-4395
-46033
-53076
-31979
-34845
-69280
-34178
1614
-52074
-87364
-55192
3971
33004
-3546
-31264
-31841
-41516
-52665
-90761
-94015
-67529
-123137
-121895
-16104
-16401
-121321
-147639
-69363
-32181
-41702
-25488
-64215
-132221
-117033
-59730
-44394
-65322
-20469
56254
39032
15619
26653
3657
6839
60437
95860
82327
44403
1391
-7762
44680
70787
39711
52636
106304
66235
-28187
-14288
65118
82140
29880
3082
-8325
-44136
-22373
-43085
-91812
-45928
-81541
-161880
-145387
-105467
-75180
-45764
-12354
-51171
-128248
-129121
-85983
-28929
-47371
-125539
-114029
-75665
-87270
-78854
-22120
12553
5005
13391
5555
-27894
-26182
-40134
-88616
-90073
-45368
-32918
-68006
-72885
-63450
-88686
-63762
-12105
-26868
-56955
-76101
-78638
-41261
-45052
-76524
-23521
22342
-6814
8594
102229
254631
379295
427228
549805
658126
687027
847292
1031262
1086789
1080940
1069011
1044813
897686
644930
382403
175853
17675
-222702
-518455
-885485
-1344848
-1650021
-1708554
-1673147
-1674785
-1677872
-1585182
-1467135
-1371220
-1263370
-1158105
-1016107
-795737
-582676
-496160
-463904
-314631
-171762
-194902
-206307
-147049
-101793
7251
97241
88751
108476
108064
110617
225165
244783
157086
158994
140702
116528
187190
177615
109065
162874
255206
256775
240192
267058
239295
183746
222347
232366
170006
229929
312861
283137
277421
215380
106339
121449
113589
132904
262806
255593
199358
255813
271476
223067
205991
218142
201952
185558
242163
270576
247680
272272
246089
222939
284590
285033
304505
349264
316340
302043
340265
407732
377291
270355
254184
246555
237056
258902
302250
378441
352650
270012
312439
393759
435620
512293
502918
427217
482566
474936
422848
500716
518174
510389
537011
576817
651018
620822
571348
563171
550446
601874
625766
613575
623062
660465
700356
640085
604916
624862
626793
696218
661881
545457
591668
654994
655934
631780
562692
571514
632480
625811
618301
632363
577908
514256
544365
544566
475881
439075
356639
257018
261014
287247
287830
239261
151477
184241
227353
126298
81327
96088
46898
-10894
-75596
-116570
-147579
-186551
-141622
-107429
-188654
-306091
-350942
-252667
-178727
-272175
-370884
-402292
-367902
-305630
-314836
-309659
-330230
-411514
-398345
-356085
-335213
-330176
-374366
-365682
-309219
-282566
-284551
-298114
-297668
-286187
-279152
-302146
-335960
-342968
-299045
-197962
-156721
-184992
-221766
-315124
-347900
-289606
-296626
-298935
-250119
-255770
-302005
-340339
-373530
-412091
-410000
-342429
-298689
-273025
-245434
-236158
-205317
-231137
-282118
-260269
-280432
-316591
-268536
-212800
-209835
-219400
-207196
-239091
-289335
-262513
-258494
-305857
-275898
-208016
-191836
-188225
-168873
-170012
-217278
-194941
-52563
-44310
-140680
-140715
-210258
-260092
-167687
-153355
-163284
-145921
-184919
-179420
-132085
-110689
-98030
-98192
-110497
-130735
-124405
-98043
-93311
-67873
-33485
12094
38334
-67252
-114517
-13656
-29497
-65183
47187
48619
-68971
-74291
-85313
-139055
-94456
-88882
-130748
-53403
14451
-9
-32257
-107924
-135393
-77229
-49250
-45594
24948
82677
-31873
-162214
-131238
-61996
-14216
-797
-47629
-72999
-83962
-123184
-134673
-93366
-26585
5682
1066
11887
5921
36716
124682
87036
-46224
-93696
-73798
-124619
-203338
-93805
40504
-10161
-42662
-10998
10186
25367
-8471
-45195
-19616
23938
22234
22069
15985
-39324
-69034
-100817
-130780
-103235
-83039
-70466
-87801
-142995
-134856
-81545
-33663
-7051
-26942
-18601
10156
-13503
-7949
28244
26810
4533
-10059
38359
67891
26168
24097
-13706
-65302
-3149
22564
-17036
-31113
-43777
-29086
-40746
-77154
-62966
-89461
-106262
-59153
-56413
-48033
-17233
6543
80735
146791
125614
85403
72804
34266
29225
61416
34071
23169
21777
14943
107924
175108
99549
8328
15610
79726
65777
14527
54471
108135
98908
46773
-7007
-25348
-62505
-106690
-92197
-48679
771
44716
40265
1229
-35744
-97604
-118351
-56469
-38276
-50756
9754
95848
95031
39143
23261
25721
35279
43172
28775
9364
-34108
-110649
-113099
-38496
-61207
-74695
31796
90344
73708
37956
28025
4527
-74605
-90629
-49489
-13284
-19705
-80736
-103229
-76806
-11825
34469
13326
39987
87290
83031
148726
332137
484248
552492
618458
693703
822731
952978
993720
991294
1025063
1186746
1186033
894708
651352
416038
223257
124131
-104037
-396502
-794640
-1285952
-1577092
-1664493
-1729666
-1785884
-1704709
-1589572
-1547633
-1470864
-1392193
-1243681
-1037682
-923699
-747879
-544375
-507918
-506020
-403285
-350893
-429762
-412007
-285431
-214057
-117601
123
11979
-72327
-94938
8764
44907
2780
6059
-17806
-21085
29464
51071
88102
66507
-2658
53260
107259
82148
70948
49601
60608
65495
14848
49390
111637
124806
171671
164974
125786
157420
157487
160490
155870
86736
138943
224751
207642
191039
153098
126576
116757
119631
225310
283174
198539
156573
243847
299368
255681
247200
294337
382206
391421
252999
214760
257712
261404
289075
285732
313408
390271
386535
386773
413494
368473
381800
473651
456871
426682
520401
587709
569020
574853
582277
595435
661456
666693
662768
701280
690285
725509
732361
642176
703013
828316
781860
786077
938455
976643
951724
977862
968572
993136
1025006
980895
977115
1036174
1077796
1062139
975285
942301
1011289
1000147
985340
1063203
1011920
960267
1051125
1030136
977801
1016116
986354
971729
983187
901370
867908
853447
787610
796680
793088
753919
753627
746168
682782
532955
481166
532507
488402
487093
518226
409280
331752
417317
440947
327791
325344
343029
224260
183229
183538
126542
160654
212907
189521
168528
129754
98269
119861
120499
125480
171690
180511
143765
129747
140096
122512
104232
148312
205466
155497
38181
39878
107631
114608
149803
179482
131383
88368
92021
104069
53352
9078
36466
36653
32172
37757
5104
35378
95183
53086
19043
34409
10569
5132
14835
17794
27208
6276
37526
69883
15518
-9943
-20932
2437
99561
111736
30762
-13945
22512
90287
82923
3207
-24007
16376
3250
-33713
-9000
59750
168783
186999
117864
131712
119676
65053
61594
54562
61756
48468
34706
84677
87145
52241
34974
29378
69355
113469
162914
194612
150283
137207
156703
116046
95375
131177
181848
221797
186732
137998
146944
146504
136652
148052
172161
190294
194706
187168
152274
130291
122126
125736
181219
176627
92807
91876
147175
126797
65169
70870
118104
107947
79567
108968
132520
108464
147157
251485
239401
182255
246166
254663
178388
172680
164997
156412
193344
201043
166458
124366
102850
82790
103502
201679
196796
93957
142500
250290
249195
228424
166813
86216
97193
98525
83706
135456
154382
121319
115018
130273
139371
97291
84589
137034
79296
51066
193124
217471
95704
68394
131701
194379
227257
173796
107677
198839
327410
263655
127609
122261
157439
133071
119575
158354
194331
153801
105533
148068
203536
185955
150479
160851
127511
78684
154169
171365
64483
76459
170978
211219
219071
213594
224438
246888
282987
309491
266958
256660
293673
293952
301295
277440
230200
258325
292456
260570
215852
221422
212767
168676
246928
301605
156742
98666
170645
162694
156328
188554
188504
237521
290990
204846
148184
205363
207511
175482
153163
157376
204042
215544
206793
203365
179641
155309
170958
199894
211805
238725
233269
211241
228727
218060
178736
155721
164715
192217
186382
157859
155406
162807
160510
182015
164366
126951
191933
212558
122919
107838
160102
173352
216567
303490
336483
382179
368143
298768
495249
731870
759500
852707
999865
1115035
1224810
1309975
1365988
1331834
1362496
1374232
1169372
1029085
864648
591248
421012
178197
-95121
-426806
-932366
-1205522
-1270225
-1414250
-1481509
-1426706
-1367929
-1279685
-1165220
-1113600
-1035237
-834313
-628859
-460066
-313150
-219891
-138123
-59989
-34190
-24449
9963
49226
104814
180907
277882
331017
272768
263569
315448
305057
321543
325973
298798
353321
393854
364779
321846
289297
317879
378248
415028
445169
454449
436127
414664
349425
272079
268725
327931
422996
459875
454213
510582
497031
436301
500850
595746
579586
460639
397206
442918
472246
513452
547664
492565
499584
573822
557625
534298
579167
610090
633214
674053
683457
681108
700448
720592
740927
684201
567757
572383
576763
522050
616833
680944
659502
717921
687786
683123
803281
778069
724119
818189
872239
817480
844024
930674
861594
802619
874278
909917
1009631
1118782
1072203
1057137
1091490
1067206
1050496
1123815
1241709
1232475
1180681
1225720
1199684
1110189
1145345
1226974
1248757
1281564
1325645
1348711
1358083
1332660
1321330
1316660
1266974
1289637
1395730
1420407
1370656
1365799
1374637
1330812
1344089
1386330
1291490
1247539
1285465
1181546
1143012
1194979
1149715
1139942
1106512
1052292
1069302
1007519
937953
852845
751697
839138
903454
830453
792372
740626
726846
749152
638300
573921
656217
632315
551825
559941
567439
542118
491878
469101
454762
417610
509186
576451
439403
400217
503465
482483
412835
457198
502581
467386
463234
476396
440872
396625
382727
455432
505842
432789
398038
381519
313851
361329
401309
306443
327849
403314
356937
336153
367800
406255
417019
339178
310174
372628
372237
333531
312528
256193
239981
333992
363639
266502
262312
331303
317274
290567
299970
339413
341075
286544
306430
351848
366681
393564
401294
415155
386607
300575
291294
324398
340686
352868
379114
451072
438471
334930
300095
318420
377790
422449
381761
415671
490273
438637
380305
342143
319076
386330
406527
396945
431442
415815
411881
448120
480241
470916
373094
321316
386375
451139
443000
421436
474826
493171
443725
487100
540820
478707
429304
475488
501954
431674
388412
457620
509259
510131
569674
586385
508908
506241
503687
425502
434642
475467
459913
467304
496088
514420
486355
466292
477631
434135
434812
480962
492093
548868
567721
508816
494712
484574
471109
499837
498381
470976
454516
454800
469095
430213
401187
438572
422433
395564
425632
391794
365602
477126
584332
579495
506839
443698
453566
498501
502713
449403
429161
451450
416418
445214
516940
415383
320436
357992
404212
457738
488124
535540
548259
433457
452319
560886
490358
445886
529046
554969
511138
465916
485688
535780
490499
428233
436126
448354
466139
452361
409049
469174
505583
405235
323536
307024
375514
452012
452537
473207
453451
438861
478032
422490
438717
562706
578608
558202
539010
528094
561846
563119
609080
652651
603576
615844
594337
508344
566749
641772
616193
592690
607093
596773
494092
471970
559178
536159
500716
542172
539026
496700
478006
467815
410442
359610
401268
482109
509980
465012
413603
387076
394291
473758
498819
393612
350294
423684
492844
532472
514807
438739
403177
449832
509213
511394
519525
560266
524134
446771
447975
480923
480891
507067
528467
476470
460485
480412
470235
494197
498494
478022
492107
514223
568549
575806
588888
669618
595208
595530
875028
1055451
1144921
1307515
1390376
1467411
1623897
1683841
1659788
1699483
1702597
1559012
1399538
1233085
935189
652951
476758
283588
11511
-445336
-889874
-998676
-1014467
-1095593
-1074500
-1044109
-1012729
-890014
-815050
-721518
-524540
-385430
-276573
-142923
-28440
96389
221264
289524
304597
340023
374046
434819
567904
560906
463486
530471
658882
711995
673931
590448
585009
633975
634500
599172
631852
714826
705167
676538
718637
691907
611381
619423
677026
674960
592412
571420
684946
761888
760367
765982
785345
831361
834027
775825
757562
748208
760331
820839
805612
727324
699768
744509
778353
752168
746511
769156
790714
819499
895202
970172
893044
806944
840668
834475
821640
869013
870005
857605
861765
865002
930137
952115
934958
1009173
1027134
989428
1042852
1086701
1050181
1017935
1031942
1044001
1046476
1106254
1214710
1267859
1227817
1182764
1188637
1233562
1319142
1362834
1329195
1338137
1383024
1381779
1361056
1377391
1423856
1458969
1500070
1527382
1508223
1467321
1464476
1550948
1574469
1492506
1544020
1663512
1642246
1592398
1595927
1613279
1616323
1581216
1608724
1645069
1591111
1594776
1630876
1652639
1688228
1605259
1543937
1603232
1555057
1470641
1466637
1447284
1434812
1456316
1448645
1367263
1286909
1288347
1306400
1281091
1227566
1218490
1214949
1110604
1045475
1052539
1028346
1026496
996459
946475
907705
842422
863266
900630
871426
847926
801034
770677
773717
765804
766163
770321
810082
851271
783671
702397
730642
730558
614227
549644
612341
730417
824080
777972
694139
690079
664550
638952
655152
741738
778740
613896
541391
609020
647623
728789
719870
654156
687401
706276
673063
618998
605769
643822
683823
692776
633957
616876
596251
543053
591752
580146
528733
565889
570236
629780
674073
584999
628087
688951
569376
530884
541156
543891
704484
756913
630995
612575
600007
561260
620422
651840
630310
649570
685032
702665
745885
825427
841874
785137
737882
655452
553729
609196
708614
640486
646136
740074
621489
558121
707626
729781
653705
687907
778821
771140
675976
703152
775934
711952
685058
744777
716172
672696
701417
699561
690246
707382
732545
793997
778298
685112
691350
751694
746535
721395
723909
747667
776923
716744
647062
720019
755560
752559
790828
713233
690352
773288
772963
747084
682497
668939
718066
630253
603376
717711
721344
694608
766841
758964
691036
757604
803434
762406
783411
773972
726003
719802
673107
622870
677010
747324
739988
711199
682281
686781
706144
686999
726737
759800
752789
771523
722702
715683
754131
726783
739011
721373
694333
720286
666715
649978
699449
669247
679238
749726
736103
698588
691951
680413
690040
698338
720599
786859
785189
730760
736133
720913
649711
661645
691613
644022
677457
729070
710808
729821
690328
610905
604069
658910
737892
724456
695385
697557
637671
619734
671440
696629
698432
732702
753869
704757
680861
711189
747665
762279
764065
859580
994164
987887
859356
780083
839946
881816
807224
789873
858261
863790
843486
867889
840312
804711
831884
781246
710580
696228
658865
692124
758793
767427
742032
653589
624261
649659
677151
758312
736279
714590
747092
650966
653288
768399
762604
729100
737755
712108
663760
701790
754508
740606
739796
705131
648036
636716
657311
700128
666239
622318
692240
728542
697290
679576
665193
669759
678002
721371
803159
786585
720487
723834
715214
670514
667064
732701
823957
841602
808222
800675
829837
949624
1082110
1147892
1283023
1451915
1524826
1578504
1673140
1764569
1787932
1790937
1886531
1849548
1542727
1329015
1220851
992199
790705
638089
377317
-60355
-527846
-733147
-775652
-880700
-960625
-937565
-839281
-749962
-685897
-545752
-417459
-308458
-95635
81422
206077
313704
296542
309551
411986
472310
524790
586234
666683
736751
761792
794726
788474
792111
820471
780783
760606
729579
699741
783223
814105
764802
786938
832002
820997
795541
830805
879779
855817
824623
832766
846923
869409
893158
912997
888908
831407
858649
939842
979191
972054
951393
974299
992182
954625
930799
946270
953473
932014
945459
986516
941833
868506
912039
996633
1016787
1024576
1043614
1101590
1133889
1078621
1090455
1102845
1074568
1127841
1091845
969030
965099
1061875
1127698
1108765
1114252
1117327
1087967
1173983
1255922
1227959
1238675
1283658
1295704
1286382
1288524
1336474
1389367
1409550
1406447
1391130
1366738
1391183
1492297
1511042
1466175
1503028
1519593
1519583
1555810
1569878
1631799
1715742
1770497
1807261
1722926
1656714
1710404
1703981
1741848
1859439
1879859
1813956
1722110
1700421
1690081
1628333
1676659
1779048
1773238
1736478
1754275
1719315
1680379
1753210
1776763
1769458
1794300
1712909
1650826
1678718
1603328
1482447
1470962
1500103
1470599
1413198
1394490
1328557
1232029
1280601
1323359
1216772
1147435
1178280
1192333
1135829
1128146
1173226
1101654
1045923
1071528
1022126
979771
966477
953226
976046
980572
981221
933881
852575
836124
814094
838475
943810
923824
799811
782678
800616
782509
823649
808679
762726
816867
790128
725196
770723
802801
820284
862356
842517
753526
732135
843302
880124
769922
722264
740050
733346
786295
865144
809126
696502
740706
827535
751739
652418
633633
628829
687781
770843
751600
686313
657146
678665
728411
737024
675759
592952
609186
712151
742450
697368
679772
703866
680477
631526
657254
683298
699999
729502
747252
835336
854720
758025
759337
728309
653035
756175
854792
833954
837780
802375
737416
789606
864609
875001
871678
842002
777093
720173
719263
749808
777807
790422
757960
724748
708087
754698
889275
885489
741682
737740
791533
752118
762615
803077
770726
762665
792843
783281
778315
812093
811959
789871
798623
827712
880167
897561
870809
852572
806030
792371
833679
836284
870770
864580
728037
721157
804628
774218
772336
799036
781541
784333
773789
762015
774791
752469
741095
766157
765753
779454
790538
774069
828188
847368
783536
837962
929397
887760
762782
684258
753673
768890
684606
767704
802522
671556
695251
752655
713741
746142
797206
809335
792282
745535
736759
780459
810485
755740
710874
739307
729146
711511
719696
724630
777925
795838
722493
739974
823165
772998
743232
808886
794982
794775
819861
771072
764760
797068
805776
803637
771790
730024
681850
692660
747249
675735
647648
732426
668779
629921
717413
711803
707762
744029
734184
766224
831450
858397
863075
827782
789699
824724
843510
799738
757843
735208
790841
883937
878332
844770
895945
928328
868970
850092
908267
936423
911419
871201
879789
913175
834847
761845
839489
855188
764548
727499
739862
749572
717008
734421
763802
672650
658438
730473
738498
776828
806539
786665
792114
766348
712329
682785
722453
818918
792907
739285
802822
796416
749889
739172
709247
765742
817827
759148
741012
744532
725235
762716
771572
698408
703576
790230
791776
740951
726520
749843
790713
780358
743990
773104
860866
913806
902761
909233
956388
1034905
1171948
1373070
1545487
1592939
1588327
1628441
1742795
1828784
1852883
1951674
1926614
1726375
1576547
1293440
987337
891064
701930
395059
27003
-428766
-635655
-662562
-785110
-833539
-783330
-716440
-623541
-572287
-488294
-329469
-199772
-41848
141992
208341
228049
305984
427479
551353
570861
563600
674408
778261
756240
682913
714091
808579
809190
850716
927989
880879
858176
831856
763218
847959
929393
904222
910594
894599
883667
883263
861575
915760
922588
927066
1027005
959881
895081
970647
932976
980316
1072191
954716
905863
983664
1023324
1021303
984357
1016181
1108977
1154233
1138133
1065560
1047907
1091002
1056211
1037227
1047440
961266
921320
1019801
1113709
1094529
1033347
1040210
1070350
1110314
1146076
1141022
1148662
1136009
1134071
1165123
1159470
1193151
1205871
1166417
1202202
1247244
1282185
1293896
1270577
1327547
1359619
1322386
1378170
1476637
1504361
1487853
1478500
1496990
1497620
1434245
1415367
1515056
1607341
1627443
1599561
1581745
1632046
1675696
1719484
1797103
1805141
1731052
1677913
1726721
1786446
1768535
1746249
1729288
1757091
1809711
1783777
1814836
1909649
1876195
1812012
1811338
1802236
1873913
1948841
1866696
1804310
1794950
1758813
1747262
1694799
1661587
1717011
1704141
1666140
1684677
1639491
1589630
1569186
1525987
1570575
1536955
1333653
1276411
1329218
1284107
1220424
1242748
1296311
1289145
1282704
1272731
1249148
1235595
1123863
1059386
1088909
1020174
969962
980256
998175
1019128
965510
967712
1041409
1021580
989692
995041
935829
883912
919701
930105
899991
890777
902502
922898
888237
858275
905911
948764
958101
926314
889715
909294
889036
844569
916781
990687
947093
905604
924697
935464
883699
858257
938191
942270
829133
776297
796767
829202
822994
831866
858559
790342
799086
931543
983801
951667
887676
874466
874987
773922
717200
792490
847146
829231
861476
926302
908907
862168
859568
860480
829367
812189
839522
910152
981410
965500
909782
886334
875690
913727
959668
905290
859583
907318
916742
875840
845053
819495
849267
929251
975965
940316
883245
895856
949560
997015
950219
850713
898787
969412
965168
1050269
1078201
931829
887586
925241
843683
888868
1080789
1067984
969204
1039538
1098501
986392
918148
955900
944413
996169
1069994
1016041
965932
931973
920999
935226
922943
1000557
1030303
941593
981546
1031109
975910
1003601
1029891
931728
887723
966429
1008200
967083
940067
916748
891399
948722
988267
970545
1009164
1025005
1003815
983783
922198
908331
958252
987870
995660
1033781
1088698
1094621
1061878
978735
916846
938630
936543
956848
1006456
971270
915079
829813
751699
854032
979551
992170
1001958
985664
952452
965235
997016
949472
854798
882822
928115
917987
931900
925921
924517
954006
1009584
994013
881591
904265
978951
927069
917144
990040
1045716
1048971
983890
951564
1010155
1038952
954667
873385
905138
931382
895307
860389
863807
909735
884266
848466
912258
949590
928357
895190
900095
929266
888830
889527
984825
1020980
989136
1013957
1072057
1066494
1048857
1023283
1021994
1090999
1070212
1033967
1091401
1058147
1004964
1071404
1084051
1049102
1109466
1160706
1162603
1128270
1025628
987301
1021827
974473
911001
921270
904397
878450
867703
834960
901628
974112
956427
971805
959794
983125
1019486
912521
901853
941638
861609
928284
1043089
991154
971807
976710
889200
854824
936562
985978
935600
912891
939542
936747
936647
935719
934988
980436
1015438
953053
888971
936828
954262
929239
976917
1032213
1045473
940660
823871
874789
931779
962492
1028376
1091233
1150198
1110815
1119690
1321476
1475940
1514674
1534389
1577944
1696209
1832414
1960429
2050207
2072346
2175383
2218668
1982600
1725151
1540952
1293756
1072386
949152
752902
249251
-301563
-537602
-621982
-659712
-668567
-660481
-525147
-446875
-490940
-441532
-289744
-98682
52390
190319
420322
564287
539523
552679
621299
670037
773382
877518
884539
904166
934977
921384
997355
1071590
1029836
1047875
1045698
985152
1057399
1082830
988944
975544
1035068
1102074
1082661
1015031
1037741
1080391
1119671
1098633
990365
1057943
1229979
1237792
1172636
1120543
1131811
1168341
1123874
1141601
1164529
1106678
1127642
1125270
1110456
1182070
1155198
1079293
1113015
1224263
1319717
1312110
1249012
1193675
1175732
1198168
1190750
1189985
1240029
1232876
1204445
1286766
1335079
1255742
1199922
1219809
1244823
1256617
1335593
1385154
1353950
1436663
1459969
1342983
1423831
1565653
1517883
1477771
1501530
1535780
1626171
1630411
1547118
1564723
1588518
1523404
1486811
1541747
1640352
1694456
1685013
1673065
1694370
1734741
1778076
1800942
1793953
1821246
1851858
1852241
1899865
1903251
1866641
1924104
1988147
2021717
2031727
1975129
1895519
1857525
1930566
2061831
2095003
1995952
1899962
1900327
1965665
2060239
2043653
1963743
1980944
1930135
1842413
1880247
1935175
1907663
1835055
1866405
1913921
1823792
1751028
1698048
1618309
1606496
1592812
1544257
1549852
1593108
1572789
1495054
1455075
1426047
1373163
1360448
1365584
1300409
1230395
1239513
1243658
1205827
1172947
1190182
1230931
1173713
1094441
1129968
1120015
994792
1028042
1198913
1188767
1100993
1130603
1156320
1129463
1091284
1065229
1104404
1128657
1071940
1064827
1108967
1088811
1057892
1061357
1060842
1056648
1024798
1005608
1061172
1048174
970220
1034180
1109757
1063430
1046685
1018815
954669
1005802
1039063
976727
1006871
1028629
984991
1037288
1016578
902629
954388
1018984
985832
1002102
981583
932871
963309
1021457
1056900
1026068
982111
952928
947154
1009815
1020605
971909
975814
1034826
1077959
1033936
992507
1010217
1010582
984136
975132
1025134
1089787
1058262
973263
979804
1036663
1063352
1083636
1079401
1077528
1075952
1028885
1020853
1096773
1125804
1037370
1022263
1109093
1082524
1023354
1055696
1097772
1116088
1061800
969514
1020324
1167580
1184561
1108264
1080040
1064251
1087710
1160331
1113683
999534
1048247
1149585
1124349
1088654
1106731
1115621
1082242
1051560
1091457
1095377
1015096
1004775
1041225
1011165
1025984
1069563
1017820
1012596
1044333
981002
964547
1085422
1169578
1114754
1133153
1215637
1153066
1115619
1143870
1116910
1150294
1170786
1070221
1006801
1005361
985420
1020905
1087604
1027962
944780
1015622
1097474
1084946
1069248
1056450
1063497
1092400
1059060
1023341
1041078
1035085
1042475
1066375
1023022
1008593
1042434
1039039
1067465
1067374
981734
986304
1065773
1083928
1058142
1034921
1057792
1079306
1052197
1079801
1131607
1133720
1127640
1078066
1063851
1098786
1067705
1039072
987774
974266
1059070
1075140
1067146
1035926
992725
1040303
1063202
1064427
1036175
957109
986294
1045180
1026727
1028652
1064383
1115871
1123584
1049796
1045828
1115059
1129744
1109143
1092812
1071419
1000913
988758
1137985
1217604
1113184
1040182
1118075
1206652
1197827
1162613
1140019
1134755
1155475
1157810
1120723
1072716
1031591
1009220
1038278
1100191
1145997
1139639
1075010
1056484
1081836
1063210
1069060
1042051
943750
931005
963834
972426
1006345
1045621
1051684
1047876
1038323
989052
985707
1028348
1027555
1009629
962297
961259
1017500
961060
893975
973851
1057274
1042242
1020994
999465
942629
939208
997216
1060526
1115733
1093274
1015426
984038
989523
993463
978328
976761
995594
986491
1056913
1188559
1157689
1078529
1179613
1371976
1540571
1676468
1733963
1741193
1806769
1937754
2076396
2139326
2161823
2231312
2142414
1894480
1716889
1519692
1330878
1152577
869480
592132
180500
-290436
-485582
-561457
-610850
-597574
-545741
-450636
-439243
-418814
-263138
-131097
-51835
84070
212939
319313
468978
522872
537160
669850
821066
938810
956752
914891
945830
994352
1059258
1106379
1083238
1090394
1120534
1079561
1018846
1051990
1124170
1160270
1181011
1158787
1132069
1156475
1161894
1084081
1063554
1166697
1121530
1038109
1152318
1197339
1207683
1261086
1187785
1154207
1162101
1150713
1221685
1220946
1175766
1222205
1239800
1200325
1203913
1216160
1182900
1240882
1348535
1324368
1269771
1268900
1303447
1363140
1356515
1306588
1285252
1273869
1295264
1340424
1387997
1426654
1407849
1354029
1298856
1276203
1312250
1366411
1414759
1462335
1479584
1453730
1476971
1513885
1488844
1503920
1520910
1502609
1546084
1594300
1583615
1568039
1600295
1671481
1712597
1719793
1703658
1687016
1766423
1804866
1739695
1787433
1856988
1857179
1875566
1859353
1876881
1916141
1855646
1868709
1975613
1976957
1966695
2024216
2050271
2024689
2013910
2057502
2031466
1987071
2024982
1984637
1974773
2078585
2095257
2066935
2060463
2012225
1947751
1932956
1974243
1977007
1924155
1944693
1984451
1920683
1894243
1914887
1848102
1807816
1777812
1639393
1577116
1604071
1546387
1535218
1572489
1490114
1442041
1480726
1426200
1372125
1414612
1389014
1321482
1317689
1300543
1322253
1322206
1191998
1171223
1216525
1171088
1187542
1208816
1164371
1113204
1128434
1243499
1257468
1180189
1176555
1191215
1182518
1150789
1107370
1074073
1070156
1099382
1102932
1061043
990800
983124
1071205
1051281
970465
1044711
1078144
1023767
1087058
1096645
1020790
1060337
1066687
1020486
1049252
1001850
967697
1022784
976816
1024288
1113424
992396
997245
1118968
1134205
1150702
1071267
1013369
1080065
1058156
1073579
1105774
1009875
1013730
1074770
1007146
968197
1037284
1073067
1054172
1047042
1028353
1036750
1072682
1041083
993531
943398
891975
972305
1116046
1158784
1125895
1096755
1081846
1051001
1074036
1131729
1047970
978546
1079131
1138230
1139917
1139886
1077329
1080238
1139290
1147182
1201315
1214048
1135424
1192493
1289596
1231789
1162513
1146678
1108991
1093928
1118642
1124198
1128176
1155689
1190767
1211466
1212984
1161067
1041295
1075374
1235673
1191557
1114998
1154954
1107084
1110231
1193304
1156020
1122056
1118228
1084337
1119598
1154334
1156901
1188774
1158753
1080280
1104702
1202823
1207084
1127284
1121408
1188209
1162093
1075389
1093556
1134592
1133880
1140365
1141887
1192532
1222442
1151353
1145425
1192451
1152796
1129189
1162931
1197399
1214856
1126333
1048849
1113992
1168686
1159816
1093764
1014821
1048824
1101399
1080145
1047815
1045667
1071585
1107336
1203410
1274113
1196623
1142761
1148846
1098115
1084474
1157442
1252354
1267636
1187431
1155192
1140991
1097163
1122555
1152743
1179510
1266227
1253696
1155289
1158834
1168632
1087203
1060176
1133546
1177755
1165570
1165241
1173863
1161726
1120672
1087931
1119127
1146280
1108814
1091830
1118128
1125846
1094557
1082807
1122337
1112545
1133619
1265349
1285041
1236965
1257663
1212113
1192625
1258078
1236662
1216201
1268822
1293651
1287667
1266970
1288806
1320944
1278313
1243943
1226325
1210620
1230079
1250233
1232954
1135621
1079024
1165917
1205614
1153591
1177967
1188351
1083756
1060842
1118961
1144196
1223987
1264143
1212303
1212366
1223278
1183748
1129825
1131673
1200440
1233467
1228295
1225622
1196137
1131914
1115532
1180724
1188405
1138789
1141939
1157717
1173152
1161575
1080833
1025512
1023329
1041533
1104904
1205106
1238960
1152040
1082378
1058043
1092307
1248629
1275148
1164505
1177011
1196806
1191127
1296447
1354198
1298749
1397153
1644646
1783758
1899207
2036196
2056994
2120025
2235854
2240986
2274053
2362775
2348030
2209115
1982476
1725988
1509976
1352005
1191444
918454
523734
108595
-212682
-347518
-401546
-495646
-467763
-351938
-344685
-303646
-160627
-24404
114989
269447
442852
590294
667599
737201
867585
963497
874325
810374
939575
1060805
1118894
1174236
1232583
1280161
1273655
1250841
1239186
1243034
1302248
1346207
1321046
1312766
1313240
1297545
1302043
1271494
1236415
1251390
1282006
1320747
1301994
1253763
1266660
1276811
1286754
1358914
1416774
1402553
1389288
1429092
1465264
1423280
1384841
1427161
1436961
1410658
1420008
1444858
1480825
1451638
1366757
1377204
1400809
1340755
1368746
1495434
1540420
1455472
1349596
1428165
1594124
1586582
1531021
1537295
1559570
1620096
1633698
1619102
1667506
1657423
1597347
1615046
1594018
1536664
1613260
1712618
1693689
1625703
1611565
1639866
1659725
1698061
1755507
1815973
1794355
1758913
1883509
1934265
1840101
1825891
1850453
1901873
1960784
1953518
1987830
2069415
2109680
2097884
2110345
2160774
2074272
2011046
2157565
2204388
2147154
2184514
2211198
2197012
2218200
2298040
2301485
2222458
2263348
2269063
2175324
2204806
2254924
2247175
2215907
2185284
2255179
2266341
2199265
2218683
2219761
2181825
2139177
2113251
2124537
2056813
1963671
1895537
1846283
1892939
1889401
1833178
1874785
1868852
1810631
1818406
1793385
1713626
1658458
1638186
1634665
1616324
1563276
1499827
1461686
1454683
1465021
1460111
1418456
1403979
1423008
1400689
1373155
1344283
1299194
1300089
1305065
1321527
1396805
1430381
1409423
1397107
1364131
1324305
1302883
1277490
1306854
1367765
1363361
1364994
1366444
1294213
1238255
1261207
1300554
1304213
1322338
1323678
1281310
1295217
1307400
1274761
1241307
1210595
1243410
1289984
1267487
1243862
1274565
1313165
1306506
1294415
1326445
1316808
1226471
1195232
1193221
1135750
1177234
1257610
1204230
1217126
1296709
1208511
1184629
1293077
1269988
1225970
1241624
1286307
1339321
1286378
1270883
1315417
1274405
1273967
1304597
1306869
1343199
1301700
1244300
1322197
1377037
1350780
1343719
1325573
1294362
1320752
1371292
1376535
1369099
1378848
1361808
1329044
1335675
1365090
1395566
1412223
1448163
1510633
1435981
1301044
1312349
1356332
1376436
1420657
1442928
1442811
1417760
1388429
1375293
1332333
1307788
1361482
1403165
1346543
1298446
1352555
1379832
1382195
1456276
1453236
1374574
1378847
1381837
1367340
1389301
1363795
1354964
1383955
1349776
1324455
1306806
1301745
1365723
1362437
1361069
1389776
1322376
1415643
1550612
1412845
1374391
1490071
1453889
1396204
1389318
1355798
1340704
1362355
1390238
1385038
1371001
1367464
1327175
1320239
1381389
1397302
1323502
1217526
1259403
1437065
1437379
1337740
1363469
1331881
1244994
1287308
1369290
1392075
1321181
1247583
1340228
1427258
1404650
1421058
1392714
1346528
1380225
1356011
1317473
1288603
1278148
1404349
1439950
1351183
1362385
1344633
1266737
1279859
1356708
1362420
1305736
1308767
1327515
1329863
1342529
1369042
1405725
1407772
1432365
1420210
1315403
1312891
1414838
1480933
1470681
1381184
1321392
1371676
1445950
1447869
1382888
1357187
1424033
1482477
1472184
1440926
1457346
1482223
1396927
1318878
1356708
1365779
1347480
1369970
1316578
1221738
1254201
1296525
1289296
1387872
1448150
1352885
1252916
1248192
1353043
1358844
1245958
1277339
1314999
1258579
1262178
1258712
1257844
1325110
1370103
1350525
1288587
1274854
1296516
1291709
1338041
1357174
1311318
1313167
1326959
1304618
1231199
1192037
1255686
1306905
1286612
1224510
1225408
1265177
1237901
1280479
1355079
1325226
1344599
1433507
1496185
1575430
1677970
1782308
1890822
1992630
2054809
2075114
2131461
2295224
2454945
2447928
2425957
2427351
2279414
2093588
1871867
1609086
1407945
1162045
904944
545305
31181
-253340
-288579
-340798
-380564
-306003
-211843
-203982
-151673
-1381
122838
176835
297883
571242
724425
738245
867346
920827
886839
1007883
1103684
1122902
1210391
1288424
1321640
1321479
1303757
1320876
1363630
1363553
1279263
1224069
1279867
1361713
1388537
1402587
1437298
1421603
1376828
1327152
1305445
1352619
1352723
1367795
1451508
1465143
1469339
1497203
1477878
1423500
1384699
1440651
1480267
1414293
1380719
1379270
1382324
1398581
1402944
1473994
1523248
1497731
1540086
1542089
1498026
1548820
1598273
1603085
1541987
1489333
1533161
1491300
1463143
1580597
1623588
1578904
1562839
1580145
1577976
1567128
1593847
1585731
1590310
1628340
1637963
1682292
1711124
1690070
1717183
1809776
1826674
1749446
1787829
1799386
1677277
1735853
1875937
1874187
1879992
1882178
1819937
1805816
1849680
1905729
1948012
1971354
2033393
2091645
2076430
2052630
2076266
2120829
2102499
2053292
2105908
2172057
2194840
2256560
2249070
2191754
2225053
2249224
2246372
2299942
2325078
2280548
2252113
2258059
2283500
2300717
2272141
2259705
2266155
2269352
2285537
2272748
2255084
2204452
2123145
2107640
2099479
2071779
2054439
2070459
2092843
2003460
1924707
1914878
1892295
1926918
1859304
1712729
1712494
1705741
1671137
1667312
1628802
1587743
1522506
1486931
1520878
1522064
1479161
1442120
1443565
1453915
1421011
1355445
1343736
1418480
1406126
1307367
1334475
1414953
1393739
1338845
1354142
1398329
1372328
1355342
1378341
1302198
1248133
1327555
1336706
1292165
1348842
1369096
1297065
1295786
1308175
1265666
1294972
1322459
1262891
1217499
1186785
1163124
1189256
1232189
1268112
1277886
1221195
1156575
1146356
1152928
1159636
1158463
1177869
1223908
1188849
1141915
1202587
1254576
1217524
1177956
1224634
1289226
1273318
1250078
1259823
1240633
1203916
1198629
1221083
1198815
1165621
1225658
1255555
1256382
1333211
1301444
1220421
1278418
1314904
1264006
1238796
1250814
1239797
1220024
1244841
1269659
1265500
1250889
1246325
1245338
1194778
1182162
1216873
1178204
1176054
1247795
1275070
1282759
1293272
1256241
1236075
1291812
1301921
1279708
1291912
1301925
1384060
1457757
1406742
1370937
1385336
1368741
1361047
1360090
1333577
1341016
1327717
1285450
1305781
1274986
1217975
1262472
1277176
1266830
1294556
1285629
1322723
1351502
1293500
1339026
1404087
1332783
1210983
1105215
1120422
1201585
1246473
1304392
1311908
1317739
1342276
1262969
1206488
1195893
1120444
1081405
1143345
1239093
1291916
1303784
1286845
1238185
1244469
1288569
1284373
1277674
1302984
1281617
1202390
1231827
1340033
1360807
1388337
1407866
1322288
1270285
1291469
1301865
1295172
1297558
1318462
1322878
1293746
1267741
1239047
1195714
1176627
1149016
1136928
1166583
1173811
1242939
1250727
1118312
1165780
1276884
1211479
1158969
1196481
1241807
1243935
1252499
1320807
1372951
1387314
1346577
1264733
1273455
1310467
1282782
1334177
1438758
1435381
1380375
1401670
1487419
1490157
1428203
1394593
1319004
1270649
1280231
1272939
1307493
1312169
1288204
1343266
1353034
1288932
1230688
1182087
1209389
1277128
1256275
1195638
1193385
1209597
1219126
1226403
1199700
1180346
1208409
1261523
1283228
1254547
1268901
1333386
1364027
1360633
1342760
1303928
1269522
1218987
1131750
1129080
1198091
1252458
1295726
1241257
1184545
1234834
1252826
1229604
1254473
1335376
1368006
1287664
1267479
1327986
1269367
1215215
1300359
1323789
1303315
1347591
1447024
1647202
1805927
1873559
1930132
1958217
2042254
2097670
2104914
2266702
2416131
2403006
2367486
2284150
2144748
1998522
1782014
1607983
1504823
1264644
949157
606392
149527
-177314
-233103
-228812
-253181
-243649
-186726
-99035
33751
137240
116397
183426
480519
685243
745022
881773
927517
894367
949831
1006575
1105135
1164620
1140237
1242434
1380357
1363156
1262354
1246820
1293507
1308170
1354342
1351793
1291793
1345068
1411371
1415468
1404162
1352959
1372227
1433994
1400555
1405581
1481229
1494869
1442386
1403344
1469699
1527633
1473220
1473469
1573781
1645197
1566468
1445738
1470975
1481502
1435050
1428463
1436768
1518042
1559994
1524515
1544259
1543444
1481984
1448812
1507496
1581167
1571380
1537490
1535399
1575165
1605527
1589191
1606657
1654724
1663265
1673777
1721485
1719494
1693929
1778735
1865739
1835999
1748474
1622213
1563289
1665220
1762978
1706567
1665151
1783266
1835938
1775203
1823250
1900866
1870528
1884074
1966476
1965171
2007240
2102644
2062825
2050804
2071465
2003755
2028367
2122598
2170620
2166665
2136549
2184020
2248041
2284198
2328647
2308924
2267854
2315329
2380028
2381824
2437951
2482700
2372494
2321174
2363146
2322476
2320380
2395788
2372439
2331268
2366744
2376348
2397777
2396465
2306731
2239833
2193771
2150014
2145860
2171737
2172000
2105008
2026998
1963513
1931187
1921638
1937740
1990329
1942060
1847081
1825870
1800588
1764855
1725234
1722435
1741829
1679452
1612564
1617473
1623464
1545343
1486665
1502054
1467471
1484487
1502001
1423209
1496561
1592472
1501816
1449176
1450413
1419691
1445015
1439493
1347885
1308163
1315515
1318087
1345711
1326413
1277904
1321499
1354431
1313796
1305432
1280142
1206827
1209889
1245750
1243373
1265835
1241435
1208083
1242025
1210638
1211027
1330200
1388591
1322702
1240075
1221954
1209754
1203017
1236242
1233372
1187458
1209353
1300776
1270298
1155347
1131701
1142152
1174246
1219338
1219975
1200900
1148974
1162028
1261376
1268679
1253091
1246560
1172423
1183296
1240830
1233245
1231437
1231397
1218315
1173155
1171678
1259524
1266761
1215231
1222842
1275934
1322890
1272242
1193504
1181404
1176319
1187476
1240569
1273071
1272973
1309562
1334349
1261173
1221612
1255430
1226942
1214553
1281403
1289987
1248898
1258089
1284249
1312635
1356370
1340994
1286377
1274930
1323282
1377714
1336744
1299343
1298389
1235712
1259759
1306629
1253686
1290421
1316116
1252778
1235024
1194771
1205006
1236636
1205490
1246044
1203496
1101865
1102975
1120883
1265046
1371481
1271747
1274807
1323669
1291055
1310149
1296533
1277427
1289846
1223662
1190954
1233308
1288711
1346961
1325520
1228675
1139055
1136153
1186654
1190196
1171703
1132426
1146963
1221899
1224468
1224261
1197957
1182325
1271941
1257196
1211729
1261559
1265743
1279850
1307894
1286718
1276565
1246454
1205157
1244627
1291432
1270769
1279670
1313185
1312697
1318859
1281837
1247944
1309581
1308828
1234319
1203789
1197916
1222380
1212582
1171375
1214175
1255753
1215228
1182800
1179197
1148507
1103239
1073807
1124148
1240224
1253695
1218926
1255501
1266176
1216600
1164316
1145995
1119745
1110871
1136889
1081238
1079159
1169203
1167081
1127854
1084265
1055699
1103219
1150459
1136981
1092753
1089688
1162532
1238436
1185385
1100061
1120536
1099444
1046230
1042868
1049800
1120256
1146811
1109764
1165453
1204108
1175223
1200514
1295406
1338442
1255560
1222384
1300038
1464259
1691182
1715910
1675580
1826078
1933560
2038545
2173293
2170195
2259133
2369705
2230943
2010581
1769534
1507060
1281099
1064454
917372
622963
78427
-278058
-395145
-467032
-462646
-478513
-484555
-405620
-307247
-159305
-45729
-6313
77442
231945
474324
638754
601157
635917
769105
777989
830953
1005620
1013028
936826
1027297
1107920
1076295
1082462
1136058
1178511
1193282
1143946
1099853
1162950
1215404
1172282
1128764
1129551
1168684
1208129
1240182
1261177
1188275
1112282
1175065
1181297
1044758
1124137
1347276
1281052
1151951
1183796
1186334
1241351
1324937
1245049
1169973
1210175
1216674
1175445
1166878
1175406
1212286
1296185
1313865
1328242
1390615
1285454
1192684
1307820
1367472
1323106
1274090
1293698
1399225
1418465
1419675
1480341
1397473
1273150
1304383
1339757
1360040
1436919
1439532
1407570
1412603
1389384
1396850
1448707
1462091
1406891
1401864
1510416
1545218
1546211
1643527
1683545
1638335
1640981
1662129
1679773
1767851
1790638
1730682
1748629
1760861
1761619
1799933
1862794
1940074
1935136
1917635
1905932
1857762
1909045
1973282
1958533
1990664
2014803
1999655
2010531
1997395
2009859
2045543
2041359
2049813
2019999
1977761
2010426
2043894
2017273
1966288
1937636
1856169
1780936
1839588
1856810
1813003
1836030
1829228
1792118
1787621
1768990
1702541
1615151
1599969
1639014
1614258
1515794
1458993
1483397
1421548
1283885
1244746
1275478
1327515
1321546
1197280
1168240
1241068
1194112
1162518
1184810
1107686
1076592
1101103
1057985
1030866
1038717
1030019
1030257
1064089
1072963
1045005
1046028
1032489
983749
939682
904059
930741
946161
877702
880430
916380
885147
890915
869209
849412
942810
976021
990834
1019083
919831
919044
1026354
993090
920386
893941
867764
842124
866599
919773
850462
789681
894636
934897
835590
801403
848063
839595
824479
836877
776673
741165
797221
837751
865307
893293
844565
764024
796571
828193
777197
812219
828913
754060
777535
824646
811844
848957
849618
776690
813756
856289
758459
785455
938816
939574
879264
843754
845929
906709
870378
851240
908416
887089
895045
887913
819697
847366
889213
871563
851466
807976
743907
737693
813879
887959
914840
941684
961789
911921
866519
910462
920489
843532
770342
783731
892949
934023
892716
878471
858660
878520
877367
813100
888958
972631
896734
866708
866100
818255
848462
880945
848334
870388
892000
851153
813774
726785
678850
746969
772060
803615
859857
870345
884232
851777
835040
848425
802818
830165
903054
875642
807209
773321
790511
805106
801885
791442
748455
804459
883155
780019
710905
753352
760377
776820
786738
779442
784479
810838
836081
766695
725726
768255
775575
795521
799148
744264
699617
694601
696333
656708
664654
724572
761683
808950
830659
866670
898050
803353
753733
822324
848649
830973
770949
722736
794406
836037
802471
833163
830680
742936
735513
832514
853097
791647
825584
876783
873674
913650
918814
861295
823066
813661
832553
795378
740745
770311
724523
681429
774613
754245
688975
738854
786037
845739
829968
750926
744195
692628
687002
758699
749050
772644
813306
780124
756054
760087
746692
692838
704252
778395
749392
654347
597540
604239
647844
648822
650880
681944
670548
627415
575807
569343
643858
729514
774527
728792
654908
689048
739131
720380
698543
665609
699898
785183
721880
678038
765041
804245
930968
1127432
1151217
1216692
1438605
1511916
1509436
1686601
1840713
1834739
1843043
1928401
1987068
1845621
1477246
1124445
953141
819122
626906
393959
-36061
-546062
-769291
-828718
-970691
-1022380
-916814
-851683
-809762
-697874
-531555
-389843
-342072
-239112
-71623
66149
212374
248190
290578
474251
514244
489349
642177
745076
707811
760712
830965
756551
742533
743873
616917
666741
773506
693071
729832
825109
782076
737386
704086
710750
785264
834500
827739
807848
816646
808619
796896
819406
838537
889818
927963
878383
856733
880016
847631
847703
877421
831471
843876
912087
914360
907038
877623
844321
867544
876306
879780
934401
968204
945279
940262
967691
972181
951222
942749
939477
937998
985881
1039819
1026103
1003769
1014075
1051214
1095087
1082921
1055652
1050204
1070010
1126925
1136291
1120135
1099869
1072683
1111626
1141510
1175987
1244422
1281242
1348163
1374214
1296787
1264081
1300523
1322087
1390790
1516687
1523989
1455495
1459776
1439922
1413930
1487096
1528055
1528786
1574085
1568272
1529296
1574939
1704987
1731092
1586535
1586377
1735324
1753968
1741947
1742488
1667343
1678271
1728066
1629105
1562350
1641519
1676314
1614664
1584536
1614976
1622202
1572509
1563503
1609202
1539601
1418403
1420964
1469378
1517940
1557667
1460023
1266858
1231282
1302830
1268386
1216055
1159715
1105981
1140112
1110790
1035991
1050498
1067808
1013516
909770
859387
879004
889411
947386
964650
832519
799612
861228
802662
776081
819478
798246
764884
749215
754569
779881
752189
712333
722402
726287
753236
805292
782677
714807
638761
613814
689078
713132
686758
720786
731312
713657
738491
727405
670683
697785
783838
795524
742755
712100
652300
538910
553920
672080
714488
704492
669104
614208
565841
557116
595954
627150
658841
649176
609129
636376
627689
567120
557778
557423
608134
672789
609548
588454
653241
585855
506836
554145
590143
609708
662565
677999
653173
650243
657824
659172
672288
678813
699913
720699
671052
662867
729636
705999
630194
611539
654404
738935
745364
682839
668338
630430
580773
600716
604502
605284
653017
695152
695021
654953
708426
772085
642670
546313
585308
604854
645462
733099
775217
719502
670078
676715
694749
731265
702874
695767
765723
706393
672155
764495
754699
720458
694783
644257
717917
789155
755697
746201
754853
726560
670529
657105
694422
690588
675070
683230
655221
675406
744053
700566
641109
639261
635360
670191
714944
743582
707087
640994
700399
747694
680066
658569
716285
771372
756516
676486
638031
667208
692262
670737
611338
597038
624526
619087
681900
777891
719745
658455
685313
612746
527854
593806
670487
680488
720420
712030
645763
662519
677436
674245
718020
790715
848694
757247
645417
641636
620852
614083
671325
709846
630859
582926
678835
684959
644957
686708
657004
594575
636662
679263
650835
666134
680572
658324
689626
724686
757888
767732
729652
734835
759714
811166
882834
824685
708064
715056
778986
797304
817008
859687
851478
762004
665469
651182
711511
737071
686478
652487
689620
721706
705020
682849
652117
639385
678110
724140
743093
736138
732321
655824
535783
566319
641899
631784
627149
628501
623601
671706
739039
757922
739975
693272
688309
740414
722360
693220
705906
641183
570876
608515
648826
679442
751540
733917
683749
751322
769827
692607
694349
740024
730274
680086
669466
737212
767969
789383
837993
841711
980938
1174443
1264303
1427709
1480639
1445142
1614777
1792188
1935977
2043155
1973976
1853243
1702556
1521499
1323084
1126069
991656
782925
529256
210776
-277304
-653763
-782101
-794174
-815996
-857630
-815224
-731283
-607405
-497849
-466875
-311027
-41733
156547
245238
283309
344513
383392
429549
495764
515260
568139
635105
606467
600065
723286
810553
825542
844521
785620
766845
848790
872717
886584
897882
849970
807461
817238
909024
958900
879804
844833
864718
859036
906104
933604
878216
847925
816163
789879
851303
934169
958134
869328
802703
909350
972199
941584
943783
921523
918153
938244
1013227
1136922
1056912
942735
998916
1001762
1007297
1062266
1044402
1036546
1033794
1020976
1015310
984857
1026281
1115023
1160878
1176351
1146891
1153926
1180519
1143929
1155492
1218293
1264818
1248496
1179957
1221270
1299692
1285523
1270246
1284252
1300457
1265031
1219639
1293617
1404140
1445598
1440374
1425720
1451321
1491274
1541495
1600468
1578592
1555500
1553602
1511076
1582753
1659901
1644534
1734957
1738544
1625588
1668061
1727749
1746752
1778329
1796768
1841973
1804854
1764341
1840860
1829815
1747060
1800800
1910936
1877463
1799754
1827093
1831661
1784086
1751901
1717003
1709916
1696518
1680102
1746462
1752087
1611643
1524541
1524359
1512513
1525920
1552200
1541607
1496305
1402331
1323210
1264713
1173622
1175485
1233228
1188059
1132412
1104306
1045537
1016642
1078278
1118232
1007083
912944
921091
925234
970171
977968
952471
1011699
987306
907599
916336
889951
845914
904499
933856
869741
886579
872899
772947
835418
907880
845957
815620
849240
888519
826219
730845
766180
838256
839010
798283
771808
806289
866302
825444
708623
685273
732550
777552
854879
877741
844060
875328
871151
812062
811044
804560
751405
724314
809909
875937
761562
684929
684797
633128
684344
816313
891651
873580
772431
705302
675257
700453
767216
760014
736591
729717
733300
756596
768270
741776
667932
681393
772462
766956
744620
810176
850520
799714
774554
812446
841187
851350
818200
790106
788663
763892
823442
851864
707844
722993
939536
957762
817743
833758
891167
806307
786776
905547
946533
865709
814633
873408
900120
874896
908181
870464
827901
851750
796264
902267
1084882
972554
862542
891878
876708
849971
797928
779455
831043
886378
934444
913388
873583
859938
815219
806651
842688
850185
843153
827430
818401
827874
835149
912554
979620
888254
823871
839620
784808
749723
800425
880435
938095
927834
918674
944684
923221
871925
890892
920282
849621
779951
808743
863596
877558
863140
854205
858818
880183
879961
821505
775553
786523
830082
884806
873528
822890
831091
802997
753167
785037
818580
887821
980479
944022
881040
931002
984138
944314
906797
928251
956744
966360
929657
897381
945981
995441
966688
925555
934089
944338
915082
867821
853493
872036
837527
799506
828595
832057
800481
767921
758504
811768
863762
845506
761754
748424
829256
858260
887408
897556
857725
879567
852462
790956
831075
859537
847144
851303
859972
878298
837631
757281
761074
773688
769228
821524
824631
751499
722203
798913
873553
833378
830782
858148
792748
782526
818904
806558
832825
882183
844744
747097
697130
715221
828453
979427
983318
932189
1006873
1162313
1335529
1453258
1493492
1527995
1585515
1702392
1834376
1881011
1924901
2036861
2063566
1927107
1723562
1527894
1362153
1157160
912923
644641
267322
-125580
-454921
-649130
-632407
-644475
-734900
-730107
-652468
-530803
-428699
-346780
-187217
-29309
110410
288034
393234
405770
432007
510635
596310
652703
726158
787565
788790
828377
936662
968950
898155
877841
897665
869779
865810
925888
965357
937048
952431
989376
934803
929231
953569
899424
897516
960032
1011735
1048065
1059943
1015011
980224
1033958
1082184
1118466
1136533
1096828
1066153
1030241
1020290
1064564
1118318
1150273
1108601
1068519
1080618
1116184
1152819
1092682
1054974
1111053
1051257
1021985
1131352
1146570
1138691
1159291
1156495
1212460
1231201
1196234
1184596
1168309
1194825
1242713
1237366
1229868
1266614
1273864
1221137
1201912
1270447
1396471
1445389
1397898
1425156
1450648
1408597
1440068
1452765
1441547
1485508
1493421
1534161
1564504
1567816
1692296
1747964
1684616
1675345
1673829
1696983
1747243
1713555
1667822
1720042
1804827
1807068
1744988
1770542
1862199
1878873
1881370
1934443
1963180
1940277
1961992
1996144
1936266
1951921
2024674
1942442
1871206
1906124
1928602
1975660
2015185
1963982
1910715
1872782
1814201
1821356
1837747
1770801
1721148
1727173
1723850
1683758
1676365
1730024
1710479
1630495
1618276
1587788
1463916
1364347
1347241
1355011
1352465
1339458
1294311
1204186
1156321
1184248
1188240
1151907
1146939
1192488
1195834
1118801
1077078
1038637
964676
987315
1037320
1019676
1012293
1015413
1020926
1006673
970289
1001195
1025059
967630
931416
933295
931342
920937
912068
968195
1037544
1004878
976405
1008910
992200
961329
960358
946503
940251
938876
895182
868623
935471
992650
983912
994781
999541
970048
957687
968126
958164
873413
786964
804327
845167
835916
847169
867555
840423
840016
855327
842207
849468
848476
877192
960886
968702
905009
883619
865014
819804
877009
940162
861588
823175
878513
874618
800235
811815
918026
943155
928959
924097
900657
894085
895790
965953
1020315
964290
915614
884242
902072
982338
1003743
944595
869677
854986
856258
842444
897811
947291
925033
906394
909338
908866
896817
895112
918193
949969
961210
954046
974263
989662
981978
951305
882946
906057
948181
889729
881950
888090
915216
993278
966481
964745
971783
852327
877212
1005085
984196
981899
1033736
1006706
972850
992009
1041258
1054199
1020660
992564
917639
824617
835525
908148
942302
956139
998300
984236
908133
940785
985050
896052
862468
931267
949419
927051
891078
850726
850883
826852
817425
863570
884979
961285
1016164
957070
904664
844968
851164
953467
986769
929071
881591
924238
926382
832537
871762
979753
947977
928717
974815
941350
900179
896084
882969
886823
889404
901063
898847
842229
841725
897570
896096
898469
957054
965389
934883
966910
968701
907742
928733
971277
918043
872260
872034
866276
891844
886750
845515
902357
961364
920563
867907
846159
842812
826949
844432
938913
968370
874502
842653
944848
1009891
972742
971970
1042347
1052464
975448
924166
978029
1075806
1062269
1003936
998520
915567
869637
969180
1008840
999836
1012159
995150
974361
904584
850423
960550
1072392
1027047
951098
946571
985606
998360
945032
896084
891142
877739
905855
994640
988766
891453
853676
897527
933018
907911
942203
984956
883231
845961
904935
892393
890887
857018
813225
911175
940387
829447
821497
887129
936839
978267
905076
820036
858529
874430
860464
863341
894001
960405
921684
902250
975740
951257
924964
905965
851138
908169
987418
1004011
992085
962021
1041763
1211155
1310142
1369860
1486107
1636799
1747967
1853918
1967939
1954381
1913294
2044292
2121897
1996530
1817440
1537394
1253981
1131632
1023661
842230
403155
-269874
-612765
-564596
-602052
-705319
-636927
-581980
-594777
-496338
-398376
-318114
-120634
67115
176291
310703
402425
431561
527380
596117
615350
715274
802597
841921
876779
901972
977025
1016595
977704
953196
902422
880069
913446
922182
1000431
1053192
981937
1012301
1107165
1077634
998242
976939
1025009
1002781
854577
821308
896430
934548
1015562
1047853
1033281
1070690
1096514
1151491
1109526
1004750
1075947
1117541
1064689
1070658
1114970
1196073
1166892
1052973
1090278
1156347
1142947
1128657
1125546
1120722
1089701
1107205
1170067
1185034
1189070
1169265
1157457
1240162
1298932
1205131
1088091
1118873
1199306
1243849
1296097
1303202
1279455
1261831
1250365
1296705
1343155
1333150
1308472
1296049
1329338
1382534
1403469
1430011
1441142
1408311
1456826
1553217
1553998
1544049
1543382
1530461
1586348
1616161
1584134
1592218
1611770
1610351
1631035
1690397
1725298
1726257
1758263
1817411
1874457
1863048
1818772
1856146
1850591
1821386
1934177
2003287
1951328
1912636
1901393
1917451
1938278
1986286
1982009
1854526
1796234
1807956
1801948
1844887
1861225
1786554
1741349
1744996
1700551
1650642
1603123
1554398
1577357
1578870
1556662
1579881
1562398
1511988
1460484
1377098
1356961
1395966
1272170
1155337
1284304
1310829
1182337
1188092
1198540
1160749
1170923
1151339
1133656
1120603
1085293
1085984
1052762
1035850
1066275
1031886
1008980
1023719
1029301
1027073
1026099
1056209
1068017
1064259
1072008
1060077
984077
878239
894327
928155
862893
853410
903716
958585
996642
956340
874307
834717
917971
1034387
1023456
970075
939678
895634
914679
965544
937964
894379
879803
878527
891778
901360
932535
924545
889830
950765
955227
884235
893944
919334
965138
979993
911746
889767
878983
884177
920383
864520
838047
932712
965490
911325
888053
904214
967333
986887
851677
789443
864534
865714
903981
977733
928886
870497
838596
875831
993524
999085
929248
921246
938483
901361
854931
924212
970601
892670
890733
928730
908238
980186
1039804
964213
978191
1032520
964184
969253
1022677
982552
983129
972489
909582
925194
937126
914967
961269
1040762
1055276
1025827
1020793
986484
963298
1022647
1014674
942238
947887
965983
986312
1052344
1058105
1017826
1016873
1025581
1029574
1016711
958908
905331
957751
1024411
989045
1033732
1109704
1039292
996416
967746
898507
920945
929681
963573
1086053
1049522
989824
1086106
1071946
990842
1020158
1022655
991555
1000251
997992
1000455
1044033
1036011
964108
989354
1053013
1020412
1016130
1073814
1101961
1107844
1081465
1020093
1025754
1080763
1026016
931012
912029
896190
900465
960442
1010460
1037216
1065342
1052309
976791
934262
960359
988517
998462
979180
929226
978629
1091568
1065703
1041368
1090530
1052119
996695
992881
1018046
1013768
977287
985238
947113
946456
1068955
1069292
1010685
1059781
1031886
938731
958736
1012324
1020497
1037693
1086439
1123927
1049593
955890
1012016
1073027
1073439
1087576
1045918
1020302
1021967
961530
963259
1001313
998032
1067017
1117875
1052123
1034095
1057093
1027892
1028001
1028954
1015168
1046449
1076349
1096501
1079989
1026226
1025371
1092114
1178649
1189140
1138588
1151674
1177518
1163306
1167360
1166952
1130398
1084829
1114779
1202116
1173459
1076896
1058215
1049835
1032877
1074883
1078737
1048420
1125204
1148237
1057001
1068761
1148621
1132997
1020974
1013962
1115510
1027891
901864
1012781
1080894
970980
967142
1069366
1078029
1053937
1052542
1043023
1033813
998351
1014430
1042897
971694
959387
1020425
1064965
1097327
1044405
1015951
1079448
1065470
1039449
1058717
999538
991391
1043071
953127
852673
897110
1005868
1031870
973056
991061
979911
907443
990638
1091011
1127405
1199264
1168953
1169954
1389739
1560952
1615041
1715489
1825370
1874472
1878126
1966260
2062855
2031464
2084026
2153562
2047356
1869263
1628839
1437248
1337404
1138213
862563
511818
84115
-220584
-382325
-480974
-479892
-437252
-470018
-490412
-366384
-194159
-62589
83877
240543
352694
424425
504155
604286
667400
702275
779653
854405
887207
926546
960696
974754
999305
1065813
1147180
1182530
1189167
1151375
1092167
1069748
1029505
1046937
1133393
1134264
1119605
1161474
1186097
1163996
1108332
1091781
1100812
1073667
1087239
1123128
1138514
1217451
1274608
1229053
1178426
1138510
1137476
1203289
1219157
1216870
1320083
1402872
1346674
1270897
1269563
1282086
1281453
1305685
1308430
1253423
1229915
1290179
1300725
1224894
1253364
1326573
1282653
1266077
1319767
1320157
1315451
1352599
1398407
1427696
1385705
1368499
1428226
1427990
1418642
1426512
1417876
1472744
1488217
1422482
1413651
1473511
1516840
1497715
1493405
1535704
1575570
1628013
1686067
1709437
1673919
1643529
1710472
1784871
1758356
1727804
1743468
1747055
1793967
1850607
1868605
1922837
1920266
1854945
1876436
1955606
2011787
2011541
2001815
2041730
2047423
2025149
2053397
2048187
2004568
1966616
1931588
2035563
2160525
2079048
2015103
2044072
1987189
1959530
1997599
1971369
1950241
1978316
1967105
1889391
1802678
1804199
1821721
1768218
1755728
1682205
1554598
1608747
1646564
1564061
1540211
1534331
1540194
1570835
1554545
1490294
1422202
1365811
1322286
1343527
1357545
1291086
1245117
1213657
1170005
1167182
1164092
1148404
1165072
1150631
1112729
1116048
1088144
1100581
1166773
1120925
1077911
1102137
1103398
1137533
1133475
1083402
1127459
1099954
968120
961890
968888
981426
1108633
1100456
1002766
1019872
1042086
1099490
1151096
1029478
920475
963109
1010567
1015910
990828
958400
969326
958704
952192
987250
987667
1022090
1080735
1053973
980660
960653
1019839
1019430
984087
1010674
978332
946401
965676
944514
923264
900396
920252
992599
1007706
981047
898649
838618
908069
934896
921543
979979
997706
996566
1039860
1041987
1029304
1024670
947067
918079
991437
965854
909767
924644
951940
1010331
998152
976637
1017793
986924
1024543
1101299
1049954
1050900
1083631
1037665
1045373
1079499
1041849
1013970
1025305
988830
952865
1031930
1121401
1100673
1070917
1090516
1077444
1048271
1056208
1056901
1073679
1114590
1090510
1034833
993039
983256
1064803
1122532
1102261
1108004
1067676
999647
1026878
1046225
1026290
1061308
1080461
1026772
1033522
1122354
1116771
1050329
1072616
1058881
980069
1027044
1082778
1044482
1085685
1115277
1061469
1046727
999695
977888
1031757
1009215
995417
1029358
1009711
978052
988754
1069058
1111568
1071622
1068043
1059102
1046924
1082883
1065988
1010887
1037646
1047801
970191
1023399
1108287
1018880
974949
996038
1027619
1088151
1044310
1022974
1060317
1035828
1027143
1014933
1023579
1059011
998688
968530
1057932
1118637
1100750
1069379
1070957
1069557
1052419
1073980
1078933
1059234
1094729
1125748
1124351
1119172
1108562
1155198
1180112
1119041
1132538
1179831
1133954
1070678
1038056
1023210
997108
982304
1044066
1098344
1075068
1041093
1010901
980027
993638
1020945
993518
1011125
1108460
1099914
1056779
1068952
1006257
963977
943342
906696
965578
969278
934339
985961
993251
985298
1015552
1022093
983971
960070
985001
902455
806980
913826
1016799
991356
977518
949504
881556
908832
982949
967581
957057
987140
976363
971071
977864
980518
1026406
1038482
1007599
1004920
966892
969350
1080492
1185723
1312548
1433711
1484998
1604124
1756449
1797105
1810490
1925848
2031666
2023578
2137413
2261416
2071883
1819018
1579424
1317732
1190493
1031053
813667
533540
70796
-334522
-494477
-507954
-521954
-542400
-546409
-550078
-461107
-364991
-337970
-208280
-16897
178569
397403
459344
487587
608724
598200
590492
700051
787463
881495
932621
963598
1047047
1083801
1050085
1000020
1013102
1053768
999434
940153
969880
992832
979945
1002740
1040011
1046972
1046674
1044035
1028589
1003434
1009674
1049300
1037904
1012532
1025714
1024351
1033354
1063105
1068153
1041022
1045823
1108507
1069522
1014979
1135511
1160651
1080217
1154355
1159371
1096090
1196227
1243676
1209495
1232006
1188629
1123862
1150166
1219334
1243283
1196384
1167570
1157881
1186053
1253531
1237517
1197977
1176374
1195017
1307197
1307207
1206783
1240140
1297708
1271231
1289504
1324510
1328584
1419228
1484230
1407063
1355892
1346917
1327672
1360639
1383500
1404487
1521676
1575235
1480270
1448622
1520968
1595709
1677930
1717826
1707795
1725341
1717079
1725514
1843267
1882999
1833227
1904946
1932787
1824167
1851096
1947350
1925740
1900879
1903704
1923267
1951361
1903705
1884001
1922058
1904007
1939257
1966466
1860382
1863721
1914917
1855290
1883222
1889968
1772786
1721101
1718625
1725679
1770191
1812341
1814135
1730452
1613260
1589823
1587206
1537713
1574069
1581248
1424082
1296363
1291913
1349986
1367312
1312864
1258684
1195275
1162705
1172046
1151132
1150732
1162573
1113396
1108764
1159936
1107299
1012514
1024972
1074883
1011165
906822
938261
988959
939133
893344
887170
930016
953981
892722
914905
958893
863071
862653
960967
931544
906633
913165
887285
899838
821802
741757
824463
882108
913461
940952
878881
835226
825301
824755
851906
879971
926315
917616
849836
820159
783425
780167
837292
789284
725480
837759
894616
792875
778181
778719
745866
812827
829315
793092
817445
799025
753570
719443
707053
769482
795169
794774
856383
845535
763327
730005
747378
765282
758400
773238
761917
696010
695827
767898
820588
827652
819540
811191
821109
850268
838548
828273
833373
788323
803028
851312
780085
743097
802676
793754
810634
927507
920690
813146
815785
846925
853509
858402
770529
771073
921363
880847
777766
829151
790746
771878
887020
848575
761663
818351
849538
822249
795563
734513
733667
844160
908359
891903
885420
868343
838733
859372
908977
892829
808003
772891
809054
806652
763365
757741
756782
736006
759653
818651
835157
822737
822305
805496
822841
870210
827310
759247
763979
806011
809379
753423
763112
802423
764923
765990
779724
740476
739174
753750
756388
718602
658053
782387
951830
853824
724228
773209
837291
862466
843699
812698
822530
813160
821406
824713
785270
799639
792813
744516
745722
763834
768103
762625
782071
782596
767634
796536
770934
734904
756207
748112
728291
728228
784030
855750
828356
800944
832848
818888
735091
708721
805158
794228
706245
733513
691165
665085
727546
673709
701424
790861
756896
758736
731505
728616
878394
887121
799860
853080
865242
811482
795928
756989
777324
860235
861904
832146
848515
870880
927812
1014419
963849
895051
964356
929838
840115
861696
854973
836639
860801
896912
893754
803548
763376
788956
743766
730297
783706
735336
718013
815874
802200
727952
696383
692038
750085
768129
741007
721587
698252
741111
782929
765814
743369
713557
761006
850800
827261
760494
730387
728759
770959
791439
757900
752041
728188
638747
665218
768432
751926
735387
760229
746297
758949
803287
817762
740161
665467
733731
804564
827902
901452
918290
904792
1035040
1164575
1245451
1425219
1535524
1591455
1710829
1734876
1753645
1831169
1919442
1998407
1903057
1689123
1451398
1250125
1128951
892940
565799
249346
-156429
-540755
-658569
-687346
-873760
-935943
-832316
-757208
-668540
-634600
-520796
-317210
-205417
-7644
212249
284259
310762
369715
475296
559104
641699
719309
727806
778999
821952
774122
786019
851831
863554
815376
765443
772874
794685
836361
908266
912350
891515
891993
813823
791380
884075
878357
906154
986566
962573
963619
853576
762367
905149
885513
878266
1031109
960801
938877
1009771
912619
890134
934312
969254
1026662
994601
988005
1041518
1047872
1038961
1004267
967158
990761
1010454
991756
984588
972018
1005338
1098835
1101392
1069741
1077645
1048592
1071414
1154649
1157541
1126520
1191209
1257358
1205769
1220128
1290711
1205188
1163857
1245348
1221760
1165098
1185538
1228333
1283851
1292855
1286889
1375819
1368661
1265299
1357679
1468925
1449855
1431793
1397970
1436748
1499873
1488004
1505992
1500140
1557457
1714259
1706369
1612545
1657780
1766241
1787302
1747007
1712887
1677367
1716750
1774359
1759169
1772199
1763954
1737210
1789807
1791828
1760804
1803514
1824811
1824487
1828254
1817867
1811009
1783392
1787148
1796507
1775049
1785240
1719879
1590888
1515149
1498402
1528079
1485306
1443150
1498521
1487496
1439269
1393835
1289419
1243965
1289975
1360286
1373820
1243011
1156802
1208313
1152058
1061331
1108081
1104932
1077001
1132427
1104983
1056074
1062514
1022143
1057368
1119704
1016597
898776
882993
904464
899928
877094
909451
893115
800180
836040
947038
918897
837962
860039
881979
861377
888976
885631
834659
855486
893384
869155
871295
892226
829225
791469
833566
817414
816289
880740
873404
856106
843071
795396
836180
846161
786535
811572
781099
728750
792273
812019
814965
847691
831201
899877
959559
862733
837521
859658
799604
772459
787220
826275
834064
779529
802390
854616
842003
839719
793795
748867
853576
913249
844488
853283
880563
810018
774312
832776
845910
781233
775974
848711
880695
875667
924465
958479
907613
825859
768492
787246
810963
797583
833689
866278
846342
811117
778667
807156
847882
809739
801531
869410
877770
836693
851782
909471
961871
957654
903056
930866
1003747
922804
777727
801216
910873
931075
935309
938686
895217
892966
898292
908769
913286
823563
811585
895126
905302
906424
900446
864033
894227
909992
867444
908340
953700
921640
937482
957780
902852
861542
883407
917353
918368
891155
872471
904856
915525
830249
777099
813821
842689
854072
876317
861306
820617
913145
1041935
951903
846613
919347
964413
916919
894730
864354
782805
771576
850563
897369
882178
860851
856855
879249
927556
916023
888359
894405
890385
945496
916513
831123
882019
847573
820856
919884
908024
929699
995614
921449
867127
861289
846295
871615
861343
833726
840115
840393
840471
817098
838079
904756
908514
904542
877533
873011
984248
1016005
955030
950980
931849
936574
1001549
1001854
996354
1015814
999215
1002057
963049
901207
927918
925282
938839
1002460
958046
954364
990165
918119
872042
800455
738828
845204
919875
879668
885018
976222
956364
798179
815741
910383
864349
834621
871855
929298
922348
854804
843850
841018
851016
869689
852920
867155
860459
851931
890492
870862
834864
841490
912765
980525
857008
736418
805221
891841
932188
904168
850420
884331
927498
910769
884698
869745
845609
848586
891202
872659
844905
954588
1061031
1009876
1038718
1260579
1404235
1474106
1615151
1705559
1744811
1834372
1892016
1886047
1961507
2029717
1881907
1643519
1419411
1234324
1114301
951010
774979
518333
80604
-301533
-490472
-543237
-554763
-600259
-586863
-486287
-407891
-344331
-215255
-67439
-2427
81534
251155
322327
385090
584800
667156
598269
614272
736443
794060
737273
777180
917281
947362
921594
964011
988435
937865
942912
990901
934811
888520
953601
965781
932589
987641
1040703
1061287
1056227
950799
907346
959442
958812
1007582
1052243
1005024
1022183
1068780
1068010
1057275
1054631
1069523
1017342
940742
989558
1086160
1140428
1154052
1134619
1131630
1119530
1086641
1067427
1072913
1123528
1156048
1160428
1205028
1218949
1157389
1139745
1213436
1252619
1177134
1118979
1170859
1191809
1167718
1203806
1220030
1203995
1253855
1314373
1293672
1265071
1308081
1357160
1400425
1440818
1443910
1464033
1448964
1407974
1466473
1484110
1452103
1524619
1547274
1500186
1551163
1609697
1604558
1600506
1615850
1702250
1790212
1777762
1786146
1805155
1762674
1757255
1784845
1821717
1842625
1794289
1797206
1884297
1927474
1917103
1873805
1870272
1966028
2008853
1985742
1978183
1938613
1907626
1900404
1919710
1957884
1917934
1854195
1849232
1876115
1882329
1849966
1835322
1822129
1766448
1709859
1694990
1684646
1595606
1517695
1544242
1528252
1474251
1512767
1547803
1479893
1389275
1335742
1261062
1264059
1359926
1311704
1246052
1277264
1240867
1196156
1175468
1126940
1062494
1048992
1093284
1084228
1101734
1147273
1127843
1086228
1007964
987910
1014923
971489
980741
1043135
1058059
1023876
968286
1007831
1034066
880814
821574
937075
955736
926494
950129
957214
1008437
1095018
1044520
931607
937664
967374
954056
923894
882140
899637
925465
919561
900015
851585
877233
902154
860425
940176
1036580
989904
928867
902993
871476
903416
993837
946270
826169
815421
801851
764100
788220
867758
874025
811901
919266
992575
879285
894624
974600
983747
1017797
1012677
947081
890292
860299
852489
866046
921250
971388
964824
934021
932404
978865
965995
903748
955511
995776
946492
992698
1025004
939459
924780
924450
867776
881637
943952
1032415
1061964
1007388
1031606
1018078
955264
1007184
1024318
986664
1004065
1009102
992302
996111
1009150
1007337
988779
994705
1059520
1074772
970422
945358
1014295
980562
943029
995582
1044537
1100030
1149239
1122362
1045029
998381
1024201
1062135
1032658
965968
970139
1035864
1032765
972760
976587
1007192
964190
906074
916183
973124
1002583
970948
956106
979097
965519
939877
957043
960031
951435
987106
993405
972371
985548
1020581
1070808
1081023
1047094
1016008
1039036
1131077
1159987
1134785
1155332
1137061
1081835
1095711
1130544
1126244
1122757
1094179
1038967
1030263
1024388
1001881
1021922
1033705
973303
933371
960826
942066
950324
1056529
1081003
1006883
959716
985720
1032691
1008949
992804
994691
936337
959855
1030519
1002843
959781
925875
944734
984843
944524
946812
967438
935269
928830
926950
976787
1041650
1002029
982771
1011099
1014884
1022438
967213
862008
828662
862789
887335
905669
980396
1029902
976436
913190
917175
995119
1035580
969605
961190
1008847
986488
1007768
1056983
1050943
1082683
1133486
1238024
1443974
1598854
1639538
1693943
1852616
2027247
2085530
2007119
2005676
2121823
2053134
1852211
1649618
1445408
1339374
1158106
882235
592201
143112
-271816
-498286
-598868
-582996
-583545
-553447
-419009
-323143
-269951
-208803
-110245
45124
175948
269308
381942
496283
557175
573844
610848
705974
840275
927547
942240
955264
963556
988596
1093812
1148557
1075675
1033998
1044661
1002791
937012
945751
1036357
1072866
1026604
1032944
1064894
1021337
996381
1031629
1022202
1035254
1072799
1003049
984200
1094776
1165909
1184053
1151265
1085814
1126301
1218165
1197838
1148048
1156737
1137563
1155417
1232463
1232461
1210803
1210626
1226129
1247844
1189643
1165924
1232987
1252022
1220372
1197706
1204616
1243576
1260748
1223465
1202928
1208189
1212960
1247944
1269624
1263846
1269994
1311076
1363275
1363116
1352508
1341483
1322422
1370282
1430206
1471522
1509804
1448401
1413136
1485813
1482762
1498027
1533713
1481899
1583582
1737444
1715160
1692268
1710830
1703322
1701430
1723790
1750910
1774547
1812985
1827241
1821333
1827644
1837884
1862208
1897726
1950896
1986945
1973556
1973140
1998431
1990592
1952345
1954990
1969889
1944728
1949771
1959028
1955363
2021241
2049822
1986926
1963622
1961165
1931402
1913969
1890799
1864784
1816702
1742505
1790097
1843066
1713127
1637731
1648710
1582883
1555944
1592745
1592171
1490139
1370130
1351619
1344988
1358024
1369608
1315947
1311871
1273404
1195293
1212160
1215058
1184973
1156652
1125086
1141302
1126505
1086300
1108623
1109560
1062674
1023075
1057977
1168858
1135351
1018303
1045650
1063056
1039424
1032033
984464
1027975
1072436
1002559
1004998
1001710
939477
953575
919231
873542
955649
1014935
1019083
997896
935179
934562
956633
948876
981391
947151
860324
951084
1044562
938727
879406
873068
809949
786259
781263
874012
959258
875270
901481
924116
801665
860445
956920
928843
930119
889182
859196
896435
868106
852210
908624
935712
894565
894792
962104
924911
891765
943041
923637
946379
993358
921332
887184
916087
866718
844479
906047
898427
865552
851779
814940
864192
936686
899627
858681
893978
919899
905344
933953
944835
883232
889854
986774
1034203
967662
903804
913274
907267
919286
978139
966747
895922
875029
900865
921772
954610
1008981
1047819
1033784
985937
972310
960159
975411
1069558
1020217
836543
820301
887399
896859
942566
953879
890093
897449
972784
965290
861337
828884
893128
932874
929050
888129
887461
947921
923102
850683
870409
930410
912687
898577
997756
1048844
986544
933236
906610
905174
863092
803971
863240
876192
813144
877004
942460
953368
992216
976385
893691
787243
773182
879650
891341
854468
920641
955062
952427
956442
865920
795347
869499
954768
957268
938559
929578
926140
956508
975236
952520
948709
931262
899249
981950
1064674
988298
931374
937147
944944
1003403
985328
945463
1006132
961873
860443
857596
836662
873515
962942
899839
849635
924733
938971
902060
871150
829197
825267
795152
744588
791667
835820
835005
859076
900762
930422
889453
882525
891468
799940
810640
873810
806359
762829
787532
825084
838099
795799
799238
836768
838154
816226
758531
719665
739849
807701
885770
858936
793182
810106
803676
793173
852986
857412
857635
937282
952295
891816
868181
913300
1016328
1135643
1306479
1528214
1624716
1672550
1800121
1873790
1952238
2011223
2000234
2028355
1890742
1604567
1403985
1234718
1076264
912939
690538
334254
-127106
-413621
-525742
-673651
-787005
-794337
-747598
-667354
-580058
-489526
-370667
-201364
-21546
95190
190078
295922
357527
400911
492346
610549
662734
650323
708222
827861
928293
987509
941025
890902
922721
924595
879357
810703
803369
877068
876562
886456
1011795
1050571
969335
948780
933240
891650
923301
926410
911651
944936
924482
893673
891485
910425
948420
937103
973074
1033952
1005241
1047827
1103519
1018498
991417
1066093
1074989
1042194
1045728
1028043
973547
1003119
1097050
1111424
1058399
1024593
1019215
1004584
990126
1023385
1106431
1157413
1098955
1052168
1117434
1132623
1078713
1123568
1161654
1107459
1120512
1155155
1165404
1254102
1326965
1295776
1253387
1300126
1333170
1258107
1258509
1341212
1344415
1308056
1342918
1416122
1375127
1333527
1408087
1432859
1442647
1497643
1523954
1557226
1628166
1667347
1615008
1573494
1565079
1594673
1714683
1725652
1703758
1789288
1753887
1704259
1754763
1750031
1755631
1752977
1679063
1706567
1827352
1812461
1720107
1772264
1825497
1756060
1736922
1765472
1772886
1765254
1706097
1630118
1573987
1532872
1528020
1557205
1569649
1563815
1584264
1564997
1448631
1377457
1418563
1412396
1341139
1295847
1237037
1185006
1204807
1255594
1277815
1241011
1166710
1121845
1101012
1075050
1040828
1000771
984549
938922
907501
956902
940434
910333
903056
809196
813005
906562
881020
840051
852709
832453
804557
839907
873315
853458
872626
896628
882807
884460
822595
736613
733632
767674
823172
840073
798232
777771
780283
806431
819310
813160
879431
952635
920351
848847
830321
830490
776752
726242
758010
789777
761099
747651
765706
764457
760718
776944
766505
736706
759907
788654
770587
776263
796961
764665
721449
685622
613484
639941
766993
738010
695754
780541
754446
703332
725900
685607
702148
800530
802771
775709
777594
718200
670193
692128
742861
803299
813143
807158
822815
813252
792685
766756
758786
802029
852835
847359
824081
859047
843792
755515
757005
806035
809689
815218
820886
793499
763598
771961
792563
790442
771891
782196
854560
858304
774117
802979
851268
771471
717999
731693
737705
739092
774784
841916
858453
822938
773488
779535
865347
897566
868610
816987
775687
810888
802972
763623
824872
869283
842432
801478
766395
813174
858321
822003
789932
758504
781209
882886
930773
892394
843319
841909
822301
746827
734465
764446
752708
788227
834253
758616
682327
730575
785539
771602
790308
816559
761518
731166
749361
764955
817811
863356
827132
751390
760512
819185
825111
848423
869427
840929
845141
882681
890369
870996
863693
880581
918339
914825
904378
971096
954977
876946
902639
903047
852577
868421
911268
880731
812484
846472
913324
900302
872197
824004
772216
766613
736019
724806
767026
771133
777428
804107
798230
781751
793535
820514
808118
781977
757422
749642
823370
855810
765726
703990
725997
749794
766959
821759
828758
766332
795832
840513
788557
785146
793467
761404
774851
753568
729606
758565
762210
819755
862785
787280
760966
764941
719431
709752
756354
852453
916028
928733
962218
932187
942463
1092761
1185812
1354285
1602291
1655863
1754728
1910431
1947297
2025983
2071448
2080590
2046315
1834648
1599757
1409438
1195869
933959
699223
491036
86059
-358157
-531015
-581271
-673334
-732272
-682065
-559702
-496509
-497236
-415871
-257784
-130345
-19573
118523
263122
344934
389147
516531
653877
690640
719010
790874
793842
705719
735447
856540
865064
894135
969054
935302
877033
896094
947909
933374
900333
943030
966962
939301
934460
949967
930928
904745
955116
968794
910916
950693
991595
943206
962860
1033582
1020185
976662
1014742
1072506
1067586
1006131
948847
999116
1044469
962227
949283
1063161
1082318
1018699
1038355
1051317
1033498
1080065
1069438
1046735
1121657
1145453
1134617
1106107
1025570
1088664
1162671
1058757
1063886
1171266
1180512
1199668
1246192
1312656
1381132
1343446
1273131
1262365
1291837
1264398
1207845
1245630
1244937
1227914
1309796
1351796
1361100
1398437
1456217
1486138
1424839
1418710
1494275
1529728
1524999
1472681
1498513
1616606
1589424
1566296
1720253
1778240
1707999
1722626
1793100
1816824
1772068
1732271
1775630
1816879
1806974
1825527
1854581
1830270
1781475
1757832
1801858
1896496
1907287
1815295
1796824
1844227
1816225
1780620
1792160
1808608
1780454
1685902
1673532
1711633
1644151
1580353
1587358
1595510
1549361
1481944
1457389
1421843
1357664
1298640
1256130
1241397
1240572
1243643
1218527
1148020
1117906
1160594
1163078
1100720
1045081
1023337
1027548
1004881
967285
960102
972960
988447
982796
998512
1011203
940036
912929
951789
905397
876136
890492
822788
802462
855015
908864
972082
933272
871829
888343
869891
836910
827015
819956
827852
794098
766573
858287
862715
719181
743327
822967
786794
831446
891917
849437
762105
682767
717379
830277
840742
768526
764697
803325
802425
752903
703025
728935
776166
783274
771734
776980
804037
767812
667934
644339
728279
745955
684948
745391
832991
774348
714824
736700
750403
756138
752081
732272
733996
729231
735317
770369
777042
783821
802818
772058
712293
712624
785703
836568
840564
855646
876095
846115
777449
766427
801015
809872
828244
852754
847639
821606
776082
787279
861611
843929
751077
719357
746768
769988
793655
807589
744845
744762
851332
863953
837143
821202
770068
767893
806762
843723
833788
779986
791214
843212
853703
800329
752350
815767
877904
872408
880832
844870
792080
792951
789860
817689
864882
826017
767338
794566
830375
771414
718590
784784
839494
789353
731840
737014
789699
815034
809422
850733
897571
872991
830328
833793
839922
821891
798306
777341
789336
792194
773696
840014
906907
868731
877980
894121
817814
848245
922863
917665
964163
939746
842960
864218
884745
839392
799853
811656
876469
871150
794965
773758
818702
806321
702062
673263
730361
741363
740720
743085
701311
674727
701290
754449
788239
765224
756337
796128
815432
783088
719981
702915
763852
824397
803616
747849
774223
799020
742594
726191
754175
749274
718113
713226
746049
740164
700010
687838
715583
738494
706978
703464
731094
714198
674220
626429
692423
803923
762290
771724
880606
892969
919146
1075131
1235486
1322305
1380605
1399793
1425167
1531822
1694132
1826192
1864950
1923756
1939323
1762134
1549913
1349393
1150560
1029132
898649
629276
220832
-175468
-493539
-681314
-686878
-745415
-840163
-753278
-634489
-531452
-395814
-315027
-235424
-114017
32471
160482
192369
254869
421031
489191
426180
434928
544880
624493
659889
704790
749171
767339
752009
765839
813108
801705
797799
794330
715022
688664
721262
765947
837233
841414
786998
775154
844209
902354
856686
828056
847392
812496
792613
837718
872195
892327
918788
904152
836961
800656
851356
909985
909621
878644
863532
927440
1004527
1011623
1008357
943000
861433
891475
898082
901007
967718
956354
932189
975262
1001980
970435
947832
1012124
1025365
964375
983721
1004583
1002902
1081236
1136532
1094355
1027420
975823
1009112
1084888
1082843
1103450
1170051
1186616
1225311
1269399
1267466
1301038
1296101
1250607
1299011
1326714
1309992
1364321
1437018
1490428
1489478
1451670
1454055
1501697
1597854
1638085
1614130
1609147
1562143
1589202
1661227
1602485
1629624
1703344
1651740
1690668
1719906
1610002
1599708
1665772
1671789
1681670
1760147
1795088
1689761
1656700
1714434
1692049
1726533
1748565
1624388
1603518
1644414
1575449
1553363
1535129
1464891
1445534
1383179
1347380
1396317
1363822
1305895
1257919
1191429
1179075
1170145
1148375
1141909
1102482
1074778
1051672
1006940
1033911
1020280
899543
876444
941658
940126
876079
811644
775520
791587
854888
873816
814363
793076
842847
824217
715943
661923
725229
808107
776766
714454
748146
763384
729422
773254
824813
764794
706941
713259
697988
682984
687534
669304
659016
676367
700588
749210
764952
708627
712725
754821
727963
718174
678697
568461
592522
657485
572651
561272
685813
745047
700327
590541
535146
584774
631958
686162
717433
661707
630962
626842
616058
643645
626071
633531
707634
653029
569501
551534
512659
593434
732635
728849
690713
672080
665352
741575
796144
748473
729633
765569
718067
633571
685886
757935
690593
619110
630564
681276
731103
725102
709478
732500
733541
744767
774419
721098
722997
814864
780036
742653
780846
738579
703060
738985
738682
720615
765416
760832
680241
718066
793818
750981
739366
799566
819893
823864
829788
836747
829042
770867
766704
795718
763969
781510
820962
805826
788956
740360
686227
712031
769922
792590
806492
785488
729156
768794
847400
829689
769106
717141
714899
758390
738549
703726
733914
727047
688585
692772
726988
756966
709916
682721
722777
681140
675675
743717
719795
704810
763080
797834
779555
759421
780975
793864
797084
803008
768698
752474
803721
802484
744379
797677
885440
881365
854631
803803
750059
765126
799358
807160
812864
837300
872519
880520
834892
756214
711088
717029
678940
656133
754880
749359
608708
619971
692869
663944
658439
724470
811492
823713
709223
639739
704498
758452
742251
710110
682298
656947
642580
662695
691498
706579
733276
755177
710010
611662
620800
687527
631339
595986
638445
635029
630926
657878
682368
668904
658905
725179
746844
695012
670758
632009
630762
700669
727964
710889
682680
702283
770113
775390
768793
849126
1006853
1180070
1274009
1290983
1353377
1492429
1594061
1685468
1811898
1857003
1885937
1859183
1659943
1513193
1373254
1104664
872911
637897
353114
26719
-345053
-577959
-688466
-797497
-854600
-867284
-813627
-711204
-676428
-620041
-450991
-293095
-205808
-102100
71823
220965
251440
257132
337402
429437
476292
537753
600153
600235
647153
743790
735755
719819
797147
799814
684691
666305
788438
822296
745752
740168
774971
748118
726195
761919
805589
841865
808048
714945
718122
753871
801931
928710
933630
845815
851048
830706
792355
818335
769791
730370
835486
884934
826494
809724
858317
898489
850858
822459
891240
894325
872382
919056
881005
853945
939163
944142
949272
1001349
960337
939880
903913
837648
940968
1029899
974382
966345
998770
1032381
1072945
1040738
1001805
1030171
1041940
1050482
1079473
1072102
1098406
1169412
1189290
1200876
1194071
1154783
1218818
1277171
1269912
1361662
1385578
1320314
1338315
1331010
1347864
1402616
1407764
1435426
1431705
1448747
1500599
1476628
1549994
1668815
1618509
1572715
1636278
1620404
1529293
1570752
1627886
1577554
1608556
1668456
1642212
1610770
1581707
1578665
1625110
1659326
1632231
1581529
1590392
1604360
1541082
1488178
1507384
1494231
1407897
1383147
1432878
1418207
1330177
1252675
1237584
1223376
1175644
1171943
1126401
1042892
1068083
1072393
1000838
963536
916719
906887
976930
967758
828756
710532
733144
811524
854101
852110
770969
734962
770030
739753
740342
754209
700103
702875
706878
661142
667612
684747
672823
702786
709509
619431
600434
652800
637229
646240
723364
757844
696766
661580
670394
601451
580081
652625
653510
639578
724674
717272
551463
503896
519597
502089
597831
621890
534978
555075
614070
600232
535989
512680
529995
512320
467485
446859
492691
539233
567531
570741
509388
501935
531947
535190
579865
584629
545145
577700
578508
490177
479363
549366
546747
521865
555387
557360
551518
589139
589352
558316
540125
530344
509640
482577
510948
569220
569891
536610
550811
596964
608414
637912
687718
629311
567371
598161
580039
587236
630247
564099
535539
547553
523884
593920
575866
444885
522216
599510
528964
596283
636296
517172
527148
610331
605993
599576
582119
555192
569084
571784
588324
623602
577611
522016
540591
577361
614514
643625
649595
593217
534984
542816
500400
521758
621336
556359
509517
567087
574805
592763
587503
560622
539112
511108
551215
564185
537565
548087
529184
489288
449995
420801
442993
529897
602695
566005
510026
480669
494756
605648
625929
527137
485962
477060
484719
511092
504567
467558
461181
497420
529185
608360
644732
583971
553486
483487
425127
438766
410415
417556
461662
442210
415900
434000
414952
385103
471026
555675
544749
504332
507454
573402
556776
520293
587220
605069
565059
559422
577867
594497
593704
603844
609680
609478
642259
620421
537482
533406
542264
501719
514634
560177
599860
562575
478744
552578
593574
449453
402654
462817
456997
441086
436898
384583
380526
434013
407948
408801
494212
505390
455046
436217
471220
492837
443619
459985
511562
485911
501566
491109
389500
332983
346336
399780
421675
424929
463885
466273
422533
383332
387503
417594
423764
420001
422461
409700
373503
356541
358183
358260
371831
403627
443820
416941
376081
426732
464454
436201
427014
483703
513453
563601
780213
950523
1050723
1185646
1187226
1208927
1361996
1489047
1574776
1615410
1615957
1521144
1388674
1251599
960154
723490
584435
370449
131367
-351120
-904288
-1064303
-1088194
-1173327
-1183237
-1137954
-1076636
-1069678
-1039142
-840448
-665437
-588480
-414173
-228252
-164183
-80714
26836
56680
134341
244192
246327
283780
359753
396146
507061
553883
488200
499901
519865
497368
482310
447970
424720
445634
468728
438032
432909
498481
509525
495285
501814
490337
495982
461471
432996
484056
508074
561748
651275
655166
605743
554690
525977
518684
550794
597467
603198
581088
536511
568279
650308
634671
562089
522363
568418
596835
566851
607083
634533
650246
751112
791548
746577
706296
654976
655561
697454
693400
696535
680977
619356
629315
725223
801539
772949
703013
711005
730667
725922
814765
938318
938826
846279
779608
856082
977363
907728
840493
942313
982710
973880
970729
940450
1012838
1077320
1032729
1050774
1129189
1167063
1151073
1159735
1252064
1275984
1230808
1255794
1304376
1335116
1281396
1234254
1335940
1323823
1230411
1325870
1363061
1280874
1309408
1332308
1320746
1385019
1388381
1331402
1375099
1431168
1394642
1356202
1333242
1302680
1300838
1239202
1155879
1186998
1156951
1059444
1089598
1103002
1031624
980138
907329
876335
913465
884867
860730
845113
729822
688224
747338
739075
668255
572172
555584
597277
556776
549848
594329
561794
547593
620347
632933
522606
431726
456997
535409
534229
471255
463896
453211
439001
455099
417151
402447
409662
362733
373987
386983
344294
341584
345546
381205
428657
379037
308026
285328
318414
381315
388759
415853
492781
421996
300429
349289
384299
372975
427109
368018
298743
354861
307802
291080
423727
435301
397188
403267
357339
350335
352541
316635
316429
298130
257884
260030
263700
261264
300596
329931
334477
329246
245954
206338
316136
371391
334077
345490
338114
269730
239035
255046
265506
274689
302179
312684
313397
339424
320190
307817
405039
436214
350333
333088
358465
336930
350680
423284
434536
410886
434973
399509
327590
354141
372695
284864
267931
369612
386420
352218
346867
299732
324234
430611
411156
321342
369035
453638
430997
394247
332531
286923
388901
475153
449723
439394
492693
539907
464606
353518
328730
301400
306674
367616
391759
476303
536185
424642
326375
304853
379663
473534
357637
280029
388012
423334
382143
354949
371942
365271
288866
298473
353596
359876
389674
398215
365625
381813
411009
364847
340828
413194
410938
359542
412179
404848
342877
406887
459923
425386
414202
421674
394144
368999
404658
420853
348706
296902
333631
345093
311938
349087
318299
177630
206277
327750
345232
363127
396637
420505
431769
382717
348522
355394
366097
397218
444465
510071
506398
425971
400836
417241
481857
542506
469835
380259
394160
430408
400335
415131
500098
463944
392260
401851
377897
361528
418162
417286
356271
397246
400088
269036
278888
319702
243760
306477
386071
362975
377815
363031
391886
436012
360140
347968
360447
299184
293886
288181
275901
378737
493236
449984
336714
305723
295014
283223
320790
316131
281517
326777
356507
317704
346157
408588
361295
245219
187815
194600
225433
323303
381390
290311
227294
239857
285625
375865
359857
348165
472094
485379
450978
597269
810626
955982
1005181
979363
1039756
1229542
1315441
1305213
1364079
1424097
1456645
1428052
1273403
1044690
809106
611381
450130
287841
-4449
-436705
-813464
-1087044
-1213321
-1172070
-1137171
-1122697
-1085974
-1031703
-907503
-801207
-709929
-564516
-441518
-329540
-215600
-118077
-73631
-84475
-39583
19699
75984
191364
258619
284282
384881
463856
433255
397859
410227
410912
362414
318278
322364
351586
405423
429497
404791
415473
447859
448382
437764
424350
392001
395294
442928
447764
443713
489344
520838
460229
354069
358421
427946
429027
428661
426172
402089
458297
548063
543692
461181
474583
626110
672380
581420
554416
574334
560992
527824
493733
512166
