-1296
1506
618
1090
793
1014
962
1061
984
966
1011
1025
949
935
1029
1076
1002
962
991
1023
965
977
1036
1000
920
913
954
972
923
944
1050
1092
1045
1025
1080
1040
960
907
969
935
861
846
917
933
881
841
871
900
848
847
892
910
827
781
824
896
906
1007
1297
1684
1974
2047
1750
989
-14
-775
-902
-559
-115
247
538
732
842
947
1020
1025
986
962
1028
1043
1002
968
1049
1095
1088
1097
1092
1150
1104
1116
1179
1206
1207
1212
1250
1308
1292
1319
1408
1453
1502
1506
1574
1528
1509
1500
1552
1560
1478
1451
1438
1383
1269
1165
1140
1081
1009
956
918
900
817
782
824
861
817
756
783
795
749
722
803
854
824
765
735
806
761
771
829
846
797
794
827
869
829
806
860
847
855
849
854
842
788
753
819
854
849
848
870
915
867
848
868
907
817
740
731
748
711
677
748
801
764
728
739
718
667
673
684
723
654
635
727
847
1008
1286
1679
1881
1656
1004
126
-689
-1084
-899
-401
37
291
453
633
796
850
833
842
862
822
799
872
911
867
852
894
966
963
902
958
980
969
978
1027
1085
1036
1060
1145
1204
1210
1216
1250
1304
1281
1294
1367
1378
1330
1274
1322
1308
1213
1116
1085
1020
919
817
786
784
704
669
670
676
622
612
617
616
613
613
619
611
564
554
609
624
579
564
620
659
610
628
630
667
670
635
675
673
659
613
684
670
685
673
684
661
619
617
658
672
673
667
695
742
715
672
670
666
586
554
551
558
560
557
563
561
546
491
542
564
530
487
514
565
511
486
541
674
883
1199
1561
1744
1487
772
-178
-1003
-1343
-1120
-587
-113
186
379
577
676
672
665
695
740
682
674
725
735
739
741
735
793
777
752
827
857
859
851
868
915
906
915
980
1037
1036
1036
1094
1146
1151
1146
1192
1205
1137
1086
1134
1146
1043
985
923
885
771
678
624
606
570
489
503
536
483
438
484
500
458
434
453
505
459
438
446
507
488
435
490
496
476
437
497
534
502
492
503
549
505
492
515
564
497
442
494
512
498
504
492
502
460
435
447
496
490
446
508
549
559
548
571
603
531
463
439
442
386
378
420
447
423
375
375
439
405
371
377
413
386
376
378
375
384
493
760
1129
1447
1552
1289
580
-447
-1323
-1561
-1234
-735
-310
47
290
418
478
535
560
522
490
549
596
563
549
580
617
613
619
617
665
676
666
695
743
730
736
779
846
851
851
878
965
943
925
1004
1029
1022
1035
1037
1035
1003
915
914
889
786
680
619
598
506
444
440
438
396
312
333
381
333
297
317
320
313
257
305
322
309
270
327
377
332
311
330
381
360
318
374
385
353
307
347
381
377
326
346
396
330
306
320
378
340
311
320
321
313
254
273
324
280
255
279
324
277
250
281
327
308
259
256
260
234
188
239
310
285
251
311
370
372
373
379
332
246
192
215
263
234
190
213
256
223
156
179
195
191
138
176
204
168
128
185
354
594
914
1245
1363
1021
214
-749
-1512
-1748
-1429
-898
-424
-118
78
231
355
346
312
320
379
344
307
350
402
387
368
395
436
437
437
456
498
490
497
501
553
554
560
631
678
671
714
771
795
796
793
807
856
803
773
780
792
727
641
576
529
459
362
316
311
250
169
159
197
144
121
132
142
106
73
94
139
132
72
115
141
114
70
95
133
140
144
130
184
149
137
135
153
143
137
136
138
146
93
142
145
121
73
102
148
104
71
77
135
102
72
81
71
81
13
65
90
80
21
52
94
70
19
10
20
20
18
36
88
61
14
17
25
-4
-60
7
79
77
82
89
141
140
98
75
87
17
-41
-47
-2
-12
-56
-17
26
5
-44
-44
-25
-28
-101
-92
-34
-36
-42
94
377
689
968
1104
901
179
-817
-1603
-1825
-1565
-1089
-626
-312
-162
-68
67
141
123
81
99
162
147
141
129
160
203
192
205
237
202
198
230
306
297
242
316
373
380
385
457
493
488
487
556
617
610
620
618
665
632
572
561
569
515
403
342
302
212
129
82
88
31
-41
-32
22
-22
-98
-70
-31
-60
-102
-99
-41
-59
-107
-92
-47
-39
-91
-69
-1
-6
-49
-39
1
26
-50
-16
22
20
-40
-23
31
0
-55
-23
30
16
-36
-47
0
-24
-41
-43
-20
-28
-50
-35
-38
-38
-98
-82
-25
-30
-87
-72
-36
-40
-33
-45
-28
-49
-101
-91
-92
-88
-63
-16
24
26
18
44
91
66
-15
-39
-89
-89
-100
-83
-29
-63
-95
-100
-57
-68
-103
-87
-107
-90
-124
-100
-51
17
197
525
903
1079
852
252
-628
-1494
-1922
-1740
-1218
-784
-487
-265
-56
21
55
87
129
111
68
92
143
142
136
137
186
209
174
200
252
260
199
248
318
329
319
365
439
446
439
499
558
552
560
590
672
647
609
623
614
602
519
474
443
377
236
204
186
120
40
-14
28
0
-52
-40
-53
-40
-95
-84
-37
-61
-96
-91
-48
-40
-104
-54
-39
-38
-78
-66
-4
-27
-52
-11
23
23
-51
-13
30
23
-32
-4
26
33
-9
-10
41
9
-33
-49
21
-5
-46
-37
20
-7
-47
-42
-35
-31
-83
-62
1
-11
-78
-67
-11
-5
-73
-66
-39
-43
-65
-56
-37
-44
-88
-64
-7
-19
-42
-37
19
16
-64
-75
-20
-64
-105
-70
10
30
-21
29
81
95
63
16
19
-40
-99
-63
-35
-47
-97
-83
-29
-60
-93
-96
-51
-67
-101
-96
-51
-36
-40
138
480
830
1055
1009
560
-308
-1309
-1860
-1781
-1351
-924
-567
-261
-79
16
83
143
86
73
84
136
141
84
116
174
204
130
182
198
198
198
202
248
262
261
288
363
381
374
382
471
496
484
506
573
572
552
556
603
580
509
492
500
475
345
269
235
160
90
25
20
11
-73
-75
-25
-70
-100
-110
-67
-54
-129
-125
-105
-92
-132
-121
-90
-98
-95
-104
-87
-80
-107
-64
-35
-19
-78
-72
-40
-36
-73
-80
-32
-38
-69
-69
-34
-40
-77
-85
-33
-47
-102
-82
-28
-62
-101
-104
-98
-96
-94
-103
-50
-64
-103
-87
-101
-87
-129
-145
-92
-94
-121
-109
-94
-89
-122
-117
-94
-103
-155
-149
-99
-94
-127
-133
-73
-75
-98
-126
-86
-121
-159
-161
-120
-90
-94
-88
-27
2
-53
-17
35
-1
-98
-159
-155
-159
-153
-162
-122
-88
-140
-162
-162
-149
-210
-185
-157
-155
-195
-177
-37
164
433
768
1005
871
263
-644
-1532
-1985
-1858
-1361
-846
-523
-340
-172
-17
29
-33
-39
22
19
29
23
69
86
86
82
120
146
95
128
177
178
132
166
242
263
258
277
341
387
377
403
477
491
498
495
529
553
500
492
502
462
404
349
307
231
111
29
26
6
-79
-95
-88
-108
-160
-153
-163
-150
-169
-213
-153
-188
-222
-201
-159
-156
-221
-214
-170
-154
-179
-176
-118
-118
-168
-165
-132
-81
-155
-139
-90
-115
-163
-155
-101
-97
-152
-160
-133
-131
-187
-182
-136
-126
-188
-196
-156
-168
-219
-208
-146
-178
-217
-208
-157
-166
-211
-216
-177
-153
-211
-217
-165
-166
-214
-213
-196
-178
-219
-209
-224
-207
-249
-241
-173
-177
-212
-215
-198
-185
-220
-212
-216
-207
-257
-276
-225
-208
-221
-208
-159
-157
-159
-141
-82
-117
-198
-280
-241
-225
-277
-251
-205
-235
-276
-275
-229
-221
-282
-274
-260
-249
-286
-277
-170
65
332
657
879
764
168
-723
-1566
-2002
-1887
-1423
-924
-589
-439
-310
-175
-87
-119
-116
-66
-32
-89
-87
-39
-30
-88
-79
-15
26
-28
1
64
91
42
59
134
143
136
157
237
274
259
294
367
388
384
411
462
470
409
373
383
382
307
239
206
160
37
-53
-94
-115
-192
-211
-215
-213
-233
-274
-207
-223
-277
-262
-269
-272
-280
-301
-267
-281
-270
-278
-234
-214
-271
-263
-220
-207
-214
-204
-209
-217
-215
-211
-157
-161
-206
-221
-180
-167
-217
-205
-162
-153
-217
-211
-215
-209
-229
-235
-214
-210
-239
-280
-213
-213
-275
-267
-216
-209
-252
-269
-214
-210
-266
-254
-213
-210
-256
-257
-215
-212
-255
-233
-205
-205
-244
-281
-237
-201
-260
-239
-166
-154
-156
-165
-112
-95
-184
-216
-203
-226
-278
-264
-217
-213
-260
-277
-234
-212
-268
-276
-254
-216
-276
-269
-234
-101
68
360
720
909
691
72
-812
-1654
-2048
-1851
-1346
-903
-627
-432
-246
-114
-95
-95
-99
-95
-87
-85
-41
4
-28
-34
20
25
24
10
43
93
84
78
125
150
135
156
216
297
301
312
368
434
395
416
473
501
438
438
444
437
368
313
312
232
127
37
23
-17
-120
-159
-151
-164
-205
-222
-194
-187
-240
-265
-223
-209
-266
-272
-224
-218
-232
-260
-195
-197
-217
-218
-195
-150
-197
-224
-165
-150
-159
-167
-136
-94
-159
-167
-129
-108
-161
-152
-162
-152
-164
-154
-156
-156
-163
-176
-156
-157
-199
-214
-155
-159
-200
-218
-191
-155
-216
-214
-160
-148
-204
-221
-178
-153
-198
-229
-182
-165
-223
-217
-173
-153
-213
-219
-185
-142
-216
-181
-159
-165
-207
-220
-209
-215
-226
-203
-150
-96
-157
-129
-51
-37
-60
-106
-139
-179
-213
-220
-181
-156
-199
-229
-179
-165
-219
-217
-200
-188
-219
-212
-196
-155
-90
156
528
870
967
699
47
-890
-1730
-2020
-1718
-1208
-801
-513
-296
-146
-78
-42
-39
-43
-40
-52
4
19
27
17
58
90
79
82
81
91
85
86
149
202
201
204
260
328
314
320
372
404
436
442
491
495
483
478
499
492
439
437
418
348
235
142
139
87
-4
-76
-79
-88
-138
-163
-124
-119
-170
-146
-159
-149
-180
-227
-170
-152
-182
-218
-171
-152
-179
-185
-134
-94
-160
-167
-123
-85
-120
-142
-92
-100
-108
-136
-75
-56
-115
-128
-98
-95
-106
-123
-92
-93
-146
-166
-108
-94
-120
-162
-106
-103
-151
-166
-141
-89
-146
-162
-121
-91
-173
-191
-153
-116
-156
-167
-134
-121
-159
-167
-142
-130
-181
-148
-183
-166
-160
-180
-177
-158
-151
-158
-133
-109
-165
-157
-159
-114
-163
-151
-164
-155
-196
-206
-121
-98
-96
-96
-57
-30
-55
-89
-137
-149
-190
-207
-147
-162
-187
-224
-183
-151
-200
-223
-173
-156
-208
-253
-196
-105
37
312
687
960
913
482
-289
-1220
-1902
-1967
-1516
-989
-658
-434
-237
-91
-34
-35
-41
-42
-36
-46
-12
36
2
-26
34
88
30
20
81
138
87
87
151
206
173
141
213
254
305
325
361
432
439
442
480
511
469
463
521
510
434
360
318
317
232
125
45
10
-34
-91
-91
-139
-182
-223
-211
-232
-270
-268
-218
-214
-216
-212
-214
-206
-215
-266
-269
-267
-263
-266
-230
-207
-266
-257
-203
-218
-216
-216
-216
-211
-255
-274
-218
-203
-213
-225
-205
-188
-214
-269
-237
-246
-282
-273
-226
-225
-293
-292
-240
-232
-296
-332
-320
-269
-279
-321
-332
-328
-361
-396
-339
-284
-311
-339
-289
-299
-379
-386
-324
-258
-307
-392
-386
-394
-383
-390
-358
-319
-347
-378
-329
-277
-275
-270
-272
-281
-366
-416
-384
-331
-383
-452
-406
-381
-399
-455
-404
-386
-400
-451
-440
-396
-390
-392
-318
-127
108
362
494
347
-219
-1007
-1704
-2032
-1889
-1439
-939
-630
-530
-486
-348
-230
-201
-243
-237
-216
-216
-213
-175
-104
-101
-153
-157
-98
-97
-101
-40
29
18
-15
44
92
84
102
164
252
264
282
320
352
388
377
427
443
406
369
420
429
342
245
202
171
82
-11
-82
-123
-195
-211
-211
-212
-213
-215
-218
-207
-242
-273
-268
-214
-226
-272
-210
-214
-215
-219
-185
-152
-193
-269
-240
-211
-218
-210
-161
-154
-164
-186
-147
-94
-117
-156
-155
-158
-175
-219
-164
-117
-138
-195
-209
-154
-157
-151
-165
-145
-146
-196
-173
-146
-190
-222
-203
-148
-186
-219
-175
-144
-191
-217
-172
-151
-166
-221
-213
-212
-219
-198
-146
-99
-95
-96
-52
-39
-76
-107
-161
-160
-200
-224
-187
-155
-203
-211
-204
-160
-192
-254
-238
-215
-215
-211
-218
-213
-158
-9
328
707
914
843
399
-425
-1382
-1979
-1961
-1558
-1065
-634
-349
-231
-178
-115
-34
-2
-70
-105
-66
29
-66
-117
-21
48
-19
-109
-29
166
150
78
77
88
79
118
179
254
261
256
335
437
407
376
402
479
488
429
472
498
501
464
357
241
139
65
23
22
-64
-144
-156
-157
-238
-286
-277
-262
-305
-332
-334
-284
-273
-274
-275
-322
-369
-365
-294
-267
-340
-391
-379
-305
-310
-335
-318
-279
-265
-291
-265
-210
-229
-307
-335
-276
-308
-333
-329
-278
-284
-336
-276
-265
-300
-344
-299
-273
-275
-344
-376
-323
-324
-354
-346
-291
-265
-298
-327
-361
-387
-385
-350
-321
-331
-322
-271
-215
-216
-263
-283
-327
-334
-389
-382
-327
-381
-394
-391
-389
-387
-391
-395
-384
-389
-390
-389
-387
-390
-382
-293
-82
176
479
707
597
14
-848
-1611
-1981
-1899
-1508
-1033
-697
-548
-447
-304
-197
-181
-220
-201
-155
-159
-154
-157
-97
-90
-93
-95
-93
-92
-85
-25
25
26
27
21
71
93
84
162
255
266
254
269
324
324
354
418
443
388
320
347
350
257
170
123
85
-3
-77
-119
-156
-190
-212
-200
-229
-282
-295
-264
-213
-257
-268
-272
-262
-290
-332
-288
-221
-247
-278
-259
-212
-256
-280
-252
-228
-212
-212
-201
-142
-193
-216
-162
-156
-148
-202
-183
-141
-160
-155
-158
-146
-159
-213
-191
-139
-178
-220
-201
-150
-164
-210
-198
-142
-189
-220
-175
-145
-177
-252
-216
-155
-194
-261
-213
-150
-150
-154
-122
-85
-95
-92
-96
-92
-175
-234
-227
-154
-180
-222
-216
-175
-188
-267
-248
-202
-212
-270
-231
-206
-219
-248
-171
60
366
670
891
861
340
-591
-1503
-2002
-1930
-1524
-1031
-614
-363
-226
-100
-27
-28
-80
-73
-27
-47
-80
-17
29
8
-32
-26
46
92
33
76
128
148
111
121
180
198
203
256
310
313
272
354
426
446
489
521
574
530
445
442
439
366
257
189
155
100
-13
-40
-49
-112
-168
-219
-209
-233
-278
-256
-211
-251
-285
-253
-208
-256
-270
-268
-270
-275
-296
-275
-263
-300
-324
-243
-220
-245
-282
-275
-251
-200
-259
-263
-212
-222
-259
-275
-205
-230
-265
-282
-243
-240
-280
-264
-277
-268
-304
-271
-267
-267
-291
-284
-267
-300
-339
-319
-275
-269
-272
-269
-295
-331
-327
-333
-304
-328
-330
-305
-239
-258
-275
-261
-210
-216
-261
-326
-335
-326
-351
-395
-354
-339
-398
-341
-323
-378
-391
-388
-394
-388
-403
-398
-340
-321
-223
43
404
621
573
224
-428
-1238
-1881
-1998
-1624
-1173
-837
-609
-443
-344
-310
-246
-209
-218
-209
-216
-204
-208
-215
-196
-154
-161
-184
-139
-96
-94
-150
-128
-85
-101
-67
-3
71
91
89
146
218
233
196
257
331
355
299
266
316
345
318
270
213
148
55
-18
-47
-112
-188
-241
-278
-259
-308
-306
-258
-283
-320
-278
-252
-261
-323
-319
-273
-278
-330
-325
-282
-262
-319
-274
-218
-203
-256
-251
-204
-221
-201
-225
-194
-154
-153
-213
-185
-171
-231
-188
-151
-160
-215
-195
-154
-175
-212
-219
-162
-174
-212
-208
-168
-203
-280
-233
-155
-171
-214
-208
-213
-210
-277
-237
-164
-150
-161
-127
-88
-93
-92
-86
-123
-195
-267
-233
-211
-201
-257
-236
-202
-213
-258
-256
-205
-219
-266
-268
-224
-201
-213
-145
101
407
705
887
758
130
-838
-1693
-2035
-1820
-1382
-935
-564
-330
-206
-96
-35
-45
-84
-92
-34
-35
-90
-59
1
31
29
26
23
21
23
54
131
132
80
108
182
205
193
214
288
327
326
377
424
450
440
443
440
443
448
389
385
354
244
165
129
61
-51
-96
-88
-140
-203
-210
-150
-210
-254
-263
-201
-175
-211
-254
-277
-266
-280
-244
-211
-204
-244
-232
-196
-234
-268
-258
-210
-207
-208
-208
-209
-203
-238
-273
-234
-206
-201
-211
-175
-173
-246
-283
-222
-248
-277
-260
-217
-235
-271
-265
-269
-289
-335
-319
-277
-319
-333
-323
-270
-267
-317
-331
-302
-309
-372
-372
-328
-331
-361
-348
-278
-282
-335
-322
-320
-334
-386
-394
-374
-316
-337
-320
-274
-271
-269
-273
-272
-283
-361
-381
-384
-376
-436
-410
-386
-391
-445
-425
-380
-375
-424
-452
-431
-431
-483
-485
-346
-148
90
405
655
548
10
-769
-1528
-1985
-1968
-1537
-1048
-728
-576
-464
-320
-263
-269
-277
-263
-230
-277
-268
-225
-202
-235
-264
-196
-156
-210
-192
-145
-149
-161
-128
-42
-29
-33
-24
61
94
79
92
176
209
204
214
274
310
258
265
260
219
131
88
64
-16
-112
-176
-209
-221
-293
-326
-326
-322
-377
-378
-324
-386
-391
-365
-336
-329
-369
-368
-318
-331
-322
-327
-321
-321
-328
-310
-262
-283
-329
-326
-246
-207
-266
-253
-215
-212
-254
-272
-222
-215
-254
-279
-209
-214
-204
-218
-179
-200
-275
-264
-215
-214
-263
-271
-209
-223
-269
-269
-225
-214
-235
-275
-268
-272
-272
-277
-219
-153
-204
-197
-137
-103
-147
-153
-146
-180
-263
-268
-211
-253
-276
-273
-215
-248
-274
-278
-218
-250
-279
-278
-243
-217
-276
-262
-179
37
343
672
869
723
134
-752
-1584
-2025
-1922
-1472
-978
-606
-394
-253
-116
-74
-95
-91
-66
-21
-72
-78
-31
-30
-32
-46
14
31
30
20
70
89
85
95
160
191
136
188
240
301
271
318
385
440
408
442
444
447
408
440
447
416
309
246
211
147
45
-37
-32
-97
-164
-217
-198
-211
-211
-218
-200
-200
-241
-264
-216
-220
-261
-288
-236
-211
-269
-241
-174
-160
-212
-212
-188
-145
-200
-192
-153
-157
-175
-221
-156
-158
-153
-157
-157
-150
-208
-192
-153
-162
-150
-157
-155
-165
-225
-235
-170
-144
-187
-217
-167
-165
-214
-217
-215
-212
-213
-207
-220
-207
-243
-244
-198
-184
-211
-262
-209
-214
-208
-210
-214
-210
-219
-210
-214
-256
-284
-276
-183
-152
-185
-206
-128
-82
-140
-154
-175
-224
-287
-317
-250
-241
-284
-296
-264
-265
-303
-346
-297
-301
-335
-316
-262
-300
-320
-167
117
446
713
800
595
-69
-1026
-1831
-2041
-1739
-1257
-832
-528
-360
-281
-188
-106
-106
-174
-212
-172
-88
-137
-145
-91
-94
-137
-121
-46
-28
-71
-99
-17
28
19
27
85
144
97
108
211
267
261
271
324
375
384
383
384
375
324
321
328
273
153
97
59
-5
-119
-162
-181
-219
-264
-285
-269
-278
-320
-343
-302
-268
-324
-329
-335
-328
-373
-373
-306
-272
-329
-333
-332
-327
-331
-309
-232
-204
-261
-271
-220
-212
-240
-286
-233
-206
-230
-239
-193
-164
-209
-219
-167
-182
-222
-209
-206
-200
-213
-216
-196
-190
-221
-213
-202
-145
-207
-211
-216
-205
-211
-201
-146
-91
-90
-82
-34
-39
-106
-167
-152
-194
-200
-218
-176
-153
-193
-227
-176
-162
-210
-221
-194
-157
-218
-212
-184
-143
-154
-13
294
632
868
884
526
-250
-1208
-1874
-1925
-1559
-1096
-701
-415
-241
-160
-63
17
30
-26
-31
31
19
31
26
73
82
85
80
123
151
136
156
198
207
204
202
273
325
320
339
406
439
440
498
556
593
560
548
588
607
531
496
451
400
290
215
186
125
36
-34
-37
-38
-87
-98
-101
-92
-105
-168
-130
-78
-134
-187
-104
-100
-158
-158
-125
-134
-167
-128
-99
-101
-91
-99
-56
-28
-81
-91
-36
-30
-46
-111
-41
-26
-39
-51
2
2
-56
-74
-38
-34
-44
-61
-35
-36
-79
-96
-38
-46
-85
-103
-41
-37
-87
-90
-36
-48
-98
-104
-66
-37
-54
-53
-32
-43
-95
-99
-51
-36
-76
-109
-71
-30
-57
-48
-38
-33
-59
-108
-48
-46
-46
-46
0
26
29
18
63
88
20
-64
-91
-97
-99
-108
-64
-36
-61
-112
-52
-44
-100
-103
-83
-43
-110
-148
-84
-4
157
453
863
1093
1005
499
-379
-1362
-1922
-1828
-1300
-810
-491
-257
-29
90
79
93
170
193
112
80
115
188
205
200
194
209
180
150
238
310
318
257
302
357
330
310
396
521
546
487
531
617
675
669
684
640
612
620
658
675
598
554
514
441
357
306
333
261
116
33
87
107
49
16
52
96
34
20
20
24
-4
-42
21
25
22
-36
20
17
21
18
29
57
25
31
30
88
86
91
78
92
55
29
102
66
16
47
81
92
55
17
34
88
31
53
101
42
-12
-11
56
77
28
18
35
77
-2
-47
13
91
54
-28
-19
71
65
20
25
18
17
-38
30
87
59
-32
-26
61
66
-20
-42
7
57
88
80
86
22
22
19
27
-20
17
123
137
20
-47
-37
12
25
22
110
139
139
141
142
107
33
19
23
24
20
26
21
37
24
20
30
21
26
26
23
23
37
19
68
223
446
735
1051
1206
898
109
-878
-1636
-1808
-1458
-932
-516
-262
-121
61
184
211
154
177
207
146
133
161
193
137
141
212
277
255
279
327
321
284
250
295
369
380
369
405
490
499
499
566
562
557
584
658
682
660
611
621
623
571
501
481
421
294
192
203
167
92
25
28
26
4
-46
-17
41
8
-40
-33
-33
-77
-100
-49
-26
-61
-97
-37
-36
-31
-37
23
27
26
25
24
21
20
33
90
37
16
24
29
19
25
24
79
87
41
14
54
88
29
-12
20
16
27
16
63
66
2
-34
-38
15
30
22
15
24
21
25
23
23
-38
2
32
39
-1
-30
50
55
-43
-102
-16
29
24
-10
32
74
10
-42
4
31
23
25
23
26
18
33
86
83
90
89
93
87
39
-36
-17
28
-34
-36
6
34
5
-44
-23
34
-1
-44
-40
-36
-36
-3
184
484
790
988
980
585
-199
-1075
-1583
-1585
-1248
-817
-431
-205
-106
-25
107
208
200
208
193
220
218
199
203
246
283
259
304
329
318
323
334
390
382
395
448
440
434
484
561
626
610
641
666
706
704
679
744
737
714
672
691
649
588
512
459
400
295
210
187
146
106
76
97
95
84
16
59
82
21
17
38
91
51
9
70
94
47
16
68
93
68
32
79
131
130
88
139
140
104
70
122
203
161
124
173
204
195
128
124
139
93
84
86
142
128
77
112
128
55
40
125
187
147
144
138
143
88
14
49
91
75
103
146
146
106
73
120
149
111
77
105
138
83
87
138
199
205
174
139
192
208
194
238
220
123
27
27
98
152
131
89
87
89
81
93
56
25
13
47
89
37
41
238
590
925
1194
1254
922
118
-913
-1659
-1806
-1455
-946
-471
-131
9
55
131
199
177
135
176
259
221
199
215
267
246
206
252
306
283
251
271
264
270
327
403
452
449
469
513
553
568
554
612
677
676
677
689
743
708
630
577
555
558
474
397
340
262
177
149
134
41
-26
-41
-37
-45
-105
-53
-37
-39
-102
-68
-66
-129
-152
-85
-15
-18
-82
-99
-72
-57
-109
-53
-38
-39
-95
-49
-31
-45
-31
-34
-34
-32
-86
-59
15
27
-45
-29
-37
-32
-25
-33
-33
-37
-88
-73
7
16
-47
-37
-35
-40
-106
-67
-22
-47
-20
24
72
92
83
90
78
49
-23
6
43
2
-49
11
34
25
-20
-38
30
-4
-48
21
18
-35
-48
-28
48
115
256
517
849
1072
1001
585
-145
-1040
-1665
-1661
-1251
-817
-484
-235
-51
78
159
217
247
204
198
226
268
254
268
257
277
286
240
293
376
382
381
394
440
446
436
479
556
556
576
640
702
691
669
710
756
802
796
796
802
775
691
651
608
547
426
387
341
267
168
142
146
92
79
98
132
83
25
44
93
83
90
87
82
77
19
49
93
88
38
43
125
128
87
97
141
151
145
141
153
156
145
144
141
148
142
146
139
145
137
180
211
148
151
138
155
131
76
114
143
126
84
98
145
123
92
93
165
184
111
81
116
160
145
145
146
99
19
59
127
148
122
109
191
206
199
246
275
244
118
79
86
89
88
92
145
143
91
89
142
107
36
14
62
84
84
91
193
402
702
1073
1316
1135
452
-527
-1381
-1789
-1593
-1076
-585
-316
-178
18
211
269
217
202
207
206
175
200
266
277
260
266
271
262
267
324
362
394
373
410
437
382
393
468
548
564
508
533
650
773
777
728
742
737
679
676
719
654
582
527
431
305
261
271
224
134
76
134
130
34
-40
16
27
-23
-44
-6
28
6
-42
-20
25
22
-31
-39
-6
33
27
42
82
85
37
21
29
26
21
24
62
45
18
39
75
91
56
27
97
44
29
30
31
-21
-26
49
83
51
-20
-7
27
29
-22
-32
35
19
-28
-25
12
64
89
89
137
148
95
108
147
73
-24
-46
-31
9
-38
-21
30
14
-33
-31
-22
-48
-95
-41
24
-11
-84
-46
58
192
414
738
1055
1092
707
-10
-877
-1557
-1758
-1438
-927
-506
-281
-133
11
113
138
152
200
202
156
164
231
263
261
267
257
268
257
301
324
320
316
329
416
440
439
491
566
632
582
608
668
682
703
758
802
769
648
553
458
340
319
508
722
717
525
341
327
267
180
101
118
135
71
133
148
135
86
89
84
95
84
87
87
88
86
97
142
147
105
99
162
181
136
152
148
151
142
135
193
253
200
200
197
194
199
200
216
208
152
155
211
174
141
129
154
196
202
178
135
137
143
136
180
175
137
143
135
148
132
149
139
141
137
152
108
82
84
130
206
196
199
244
313
288
216
152
150
111
86
81
130
110
83
82
114
131
87
84
119
117
73
92
83
88
88
240
595
997
1268
1267
823
-49
-1090
-1742
-1721
-1302
-827
-410
-118
52
143
206
204
208
200
200
204
208
195
235
290
291
221
209
286
314
258
259
334
391
379
377
379
436
450
517
585
623
562
579
667
679
675
676
673
682
632
615
572
520
397
328
314
270
157
92
46
16
21
-27
-40
-35
-39
-42
-39
-43
-103
-122
-95
-95
-103
-79
-41
-40
-82
-104
-52
-34
-85
-91
-40
-38
-92
-86
-13
28
-25
-38
8
33
-25
-36
-14
14
-55
5
21
33
-8
-48
-3
33
15
59
92
65
16
-44
-7
30
33
101
146
140
95
147
194
179
94
89
91
88
41
25
81
78
15
56
96
67
4
0
72
87
78
58
83
79
122
296
598
908
1081
1056
638
-170
-1074
-1638
-1586
-1164
-741
-406
-184
-33
74
195
257
267
243
241
307
326
270
283
372
382
327
324
402
445
441
440
475
501
490
511
572
632
616
639
712
780
757
773
843
851
854
859
853
862
811
752
730
660
535
458
436
377
283
209
200
210
190
147
198
209
183
163
212
193
128
85
140
155
142
146
141
146
146
146
149
206
190
218
262
188
104
136
255
317
249
197
226
277
207
144
174
256
222
144
160
225
270
211
180
121
76
106
181
198
134
104
140
141
144
86
80
88
87
158
204
121
-16
-42
10
84
88
96
143
148
111
75
125
129
46
-44
-21
21
31
82
117
143
133
174
211
164
65
15
49
82
-29
-48
1
34
11
-34
23
24
6
-41
19
25
-26
-42
4
157
380
699
987
1037
707
33
-814
-1508
-1727
-1403
-870
-471
-251
-128
-1
101
157
205
200
201
208
199
234
265
194
206
265
316
259
263
302
366
326
315
363
433
466
496
533
559
551
587
644
677
674
672
701
740
697
662
715
712
626
570
542
481
387
280
263
257
200
200
199
199
129
76
93
140
99
91
77
145
123
68
110
138
136
143
147
98
90
147
197
206
145
147
185
203
205
193
214
237
195
204
214
264
212
171
181
201
196
205
190
203
194
199
196
201
188
156
207
202
178
140
197
206
170
131
161
171
143
148
182
214
170
138
195
208
169
129
195
189
139
142
149
200
198
209
200
268
262
284
325
318
238
158
145
144
145
136
165
198
139
96
98
153
127
99
141
141
126
76
129
196
328
622
1031
1314
1255
776
-86
-1046
-1682
-1663
-1192
-686
-308
-51
140
253
269
257
286
331
317
313
332
389
376
327
372
388
357
331
404
493
464
439
483
545
526
501
587
615
621
615
672
743
765
791
793
797
808
796
852
829
744
667
621
593
494
406
336
315
287
230
204
185
138
153
136
149
120
81
135
124
70
30
70
141
130
78
88
88
95
68
99
151
122
80
102
149
142
144
150
116
85
88
127
144
87
84
128
138
100
78
109
136
78
29
53
95
37
54
88
80
31
18
67
92
40
-30
10
84
40
24
63
98
46
-28
0
35
22
27
73
94
53
18
33
-12
-37
-19
47
85
85
88
92
149
131
86
83
79
8
-38
0
32
14
-37
2
30
-16
-41
-28
32
21
-35
-37
-30
-39
-8
148
404
697
979
1104
871
189
-691
-1377
-1612
-1413
-985
-531
-226
-88
1
133
209
202
186
201
206
208
205
241
263
254
269
310
368
340
333
391
380
379
383
452
502
500
504
565
614
612
636
718
744
730
672
719
747
738
706
674
685
620
515
458
423
334
257
197
200
152
144
144
146
121
86
88
85
89
83
90
93
89
83
85
85
84
82
85
92
81
134
149
148
147
142
165
207
181
135
178
209
163
134
179
215
154
146
136
186
152
136
144
140
144
144
149
151
137
82
108
151
99
82
139
142
135
81
131
136
88
89
125
157
98
82
101
158
140
146
139
135
81
27
56
114
148
141
152
209
183
140
202
267
232
120
82
91
87
83
101
147
84
87
82
96
63
8
57
91
72
20
45
128
263
538
906
1223
1233
821
-10
-982
-1680
-1766
-1345
-829
-423
-176
7
167
236
201
235
281
255
203
263
259
262
257
308
324
322
324
365
399
389
373
417
435
437
439
498
570
558
558
611
678
675
675
709
744
739
738
740
703
664
632
611
544
451
352
325
287
191
139
138
138
108
84
91
90
84
43
19
92
55
21
30
85
69
5
70
90
85
44
82
86
79
79
74
140
102
82
105
148
125
74
110
158
101
84
94
152
127
76
109
146
114
86
89
82
80
25
84
85
84
47
77
92
89
28
45
103
51
27
86
92
87
21
57
90
53
11
54
89
47
17
71
88
90
32
77
68
22
23
42
86
25
24
60
117
87
91
155
205
160
127
147
122
51
-27
10
23
18
28
21
38
2
-25
35
49
30
-38
-5
35
19
64
265
604
948
1191
1146
629
-292
-1285
-1827
-1709
-1274
-809
-448
-194
-38
95
191
204
192
133
182
203
199
197
239
268
247
193
241
318
313
317
330
381
389
379
418
443
437
440
503
570
617
610
643
687
672
682
672
675
679
639
615
626
558
455
387
370
275
208
148
136
116
44
30
25
28
18
81
69
22
6
6
28
21
28
21
22
27
26
32
91
42
16
55
87
83
88
81
86
81
43
82
143
139
85
82
85
92
84
91
140
91
32
46
124
98
81
87
87
77
18
37
94
43
15
38
95
76
22
28
74
46
12
13
68
71
20
30
88
47
13
28
95
52
22
29
84
49
16
14
30
21
26
25
78
95
27
22
60
25
5
10
27
23
15
81
142
138
141
139
146
118
30
18
23
20
21
22
27
24
16
21
18
23
-31
-18
38
-15
-39
19
114
297
583
972
1230
1069
417
-530
-1401
-1826
-1687
-1200
-704
-370
-171
-9
119
175
139
153
205
191
200
194
234
264
256
257
260
252
278
316
362
362
323
372
417
422
404
474
541
570
552
577
670
670
623
660
725
700
666
678
672
627
523
489
495
420
329
285
251
193
123
79
110
75
32
34
92
52
10
29
23
26
27
22
25
24
27
11
53
75
14
24
78
68
12
73
88
81
81
80
77
86
70
79
137
136
79
81
82
107
45
77
80
76
32
47
87
77
39
22
24
23
20
24
96
40
24
10
69
42
20
10
47
58
17
31
24
25
27
9
72
35
28
21
23
22
25
11
60
25
18
13
69
47
23
17
66
80
16
21
12
26
-34
-11
78
81
83
89
138
145
142
136
146
108
28
22
31
28
26
19
28
25
23
24
24
6
-47
13
23
23
3
25
206
473
803
1132
1218
846
-8
-962
-1682
-1807
-1455
-955
-529
-253
-85
57
174
201
142
162
215
229
201
210
257
259
258
288
320
316
265
301
375
386
350
363
446
474
468
509
574
614
587
619
698
716
662
673
710
742
731
671
670
658
549
468
442
415
327
265
231
182
138
85
87
83
29
26
19
17
25
24
8
-36
-43
-18
32
14
-40
-33
49
96
28
21
29
20
29
21
75
38
19
36
88
53
-32
-26
23
30
-20
15
29
12
27
19
30
-6
-48
-33
-40
-42
-99
-83
-38
-42
-43
-54
-27
-70
-103
-85
-35
-41
-85
-100
-74
-54
-98
-123
-93
-28
-87
-101
-98
-92
-95
-109
-82
-53
-103
-94
-42
-58
-122
-149
-91
-114
-156
-103
-50
-42
-35
-33
33
0
-48
-43
-41
-82
-99
-96
-40
-42
-94
-84
-41
-56
-98
-97
-62
-30
-82
-89
-29
63
224
488
833
1025
882
362
-406
-1224
-1723
-1652
-1180
-725
-442
-289
-150
-15
85
163
199
201
186
184
244
263
262
256
297
327
268
289
340
375
314
341
432
442
437
444
514
563
559
618
682
678
678
729
731
737
740
743
801
749
643
610
620
552
454
375
330
265
184
141
147
133
81
83
80
82
31
28
95
84
80
28
87
86
89
86
127
150
84
99
145
155
112
84
142
141
143
142
161
148
155
136
175
172
133
144
157
204
142
140
134
146
145
138
147
140
71
121
144
134
91
86
144
131
80
23
95
150
124
74
146
111
82
81
133
117
78
86
119
151
100
78
140
114
29
15
88
146
134
162
202
202
199
202
240
183
113
83
85
79
23
50
118
123
86
86
83
38
17
70
128
110
69
83
211
452
742
1085
1305
1139
427
-580
-1452
-1820
-1609
-1103
-591
-273
-120
47
236
295
247
233
279
302
252
302
326
316
332
322
379
381
379
375
415
447
430
454
500
499
495
537
593
632
675
672
728
737
731
749
796
796
747
726
741
709
601
550
557
492
387
317
324
258
212
149
184
157
111
88
127
147
125
74
94
83
83
79
85
78
84
80
120
142
122
111
151
139
151
133
179
205
147
142
204
195
144
150
201
184
141
145
199
192
145
139
142
208
157
139
139
140
139
145
138
149
129
129
148
146
114
77
90
135
141
138
143
125
73
97
138
141
105
128
141
138
104
79
87
80
88
79
147
195
200
201
259
288
216
142
95
86
96
74
111
168
100
84
80
94
49
51
93
83
70
11
71
92
148
325
675
1052
1258
1144
642
-307
-1294
-1837
-1696
-1203
-727
-379
-114
66
153
223
265
260
205
205
273
320
264
270
323
324
323
318
354
393
376
385
438
441
445
455
524
570
553
587
657
680
668
687
738
792
748
731
743
736
742
693
675
612
516
453
400
345
248
194
208
191
113
88
92
91
82
84
78
96
44
46
94
85
87
81
85
89
74
59
107
127
83
89
130
141
143
143
141
142
147
95
93
140
143
139
157
187
135
144
138
145
100
81
138
143
99
81
91
92
85
83
79
83
95
78
98
128
67
20
68
82
80
90
79
86
41
33
97
59
26
28
81
146
89
81
84
89
60
11
55
89
84
84
127
141
148
188
203
157
48
-48
4
24
22
25
26
20
20
-35
4
31
2
-38
-41
-34
-70
-60
58
237
499
823
1151
1157
684
-191
-1156
-1777
-1822
-1400
-848
-455
-257
-140
-2
108
151
139
145
142
148
135
182
186
133
157
205
198
200
200
194
241
263
261
300
352
387
377
429
477
498
487
536
565
558
555
600
619
580
495
515
565
501
408
360
290
209
144
148
79
-23
-90
-94
-95
-148
-167
-102
-95
-162
-219
-165
-157
-155
-211
-185
-149
-188
-168
-156
-168
-160
-163
-158
-156
-158
-159
-117
-85
-141
-164
-144
-96
-101
-166
-136
-93
-140
-171
-123
-108
-174
-199
-139
-98
-155
-217
-182
-151
-170
-187
-156
-151
-201
-188
-152
-176
-254
-266
-179
-161
-157
-163
-110
-97
-97
-106
-105
-94
-158
-220
-218
-200
-173
-225
-214
-215
-209
-226
-202
-157
-208
-220
-204
-170
-216
-213
-181
-67
111
401
725
918
758
199
-610
-1425
-1903
-1838
-1378
-874
-599
-468
-295
-123
-38
-47
12
80
83
90
87
133
77
92
149
202
188
153
203
246
268
258
262
322
293
300
378
450
500
492
562
620
616
612
670
678
642
608
668
645
568
485
425
355
280
205
162
103
25
-45
3
16
-47
-103
-59
-31
-71
-107
-82
-47
-97
-159
-102
-40
-41
-41
-40
-50
-40
-49
-26
-24
-47
-47
-13
33
-18
2
45
66
20
-33
15
20
12
-48
-21
22
19
-34
10
28
-3
-40
24
31
-12
-44
-36
-53
-37
-49
-19
-3
-41
-42
-11
21
-47
-40
-37
31
-15
-39
-42
-30
-67
-104
-72
5
12
-10
54
93
40
33
104
114
29
-57
-108
-62
-53
-53
-32
-44
-36
-34
-43
-34
-72
-100
-88
-59
-81
-139
-91
67
309
661
1032
1205
902
135
-854
-1674
-1964
-1685
-1142
-657
-356
-174
-37
57
87
82
102
148
110
78
130
194
157
136
172
236
215
188
231
275
264
257
261
314
322
332
402
446
501
494
537
562
553
554
576
625
578
555
551
561
492
435
439
379
297
180
135
134
78
29
16
37
-5
-50
-34
-52
-96
-91
-30
18
-40
-36
-45
-34
-57
-101
-59
-11
-2
-33
31
26
-12
-47
8
32
-10
-41
15
80
42
22
24
51
37
14
29
21
27
22
19
25
14
-46
16
23
-31
-42
-2
32
1
-33
-31
-44
-40
-36
-36
22
-21
-45
-32
-34
-39
-47
-19
18
-43
-68
-42
-36
-43
-10
57
123
113
72
84
72
13
-87
-63
-30
-43
-67
-47
-28
-69
-109
-89
-39
-69
-111
-83
-36
-53
-108
-40
150
429
781
1118
1167
712
-193
-1189
-1841
-1910
-1517
-982
-556
-312
-171
-18
83
72
31
76
137
111
87
134
170
152
137
156
211
160
150
228
266
255
228
285
314
314
328
409
480
502
492
523
562
556
565
604
642
617
619
605
560
497
411
368
317
242
144
86
54
-7
-33
-61
-100
-87
-97
-96
-95
-101
-157
-159
-148
-97
-100
-90
-103
-157
-167
-136
-94
-98
-88
-98
-94
-94
-100
-95
-35
-65
-99
-97
-98
-91
-98
-46
-51
-45
-105
-64
-34
-91
-97
-100
-104
-96
-101
-81
-25
-75
-102
-90
-102
-100
-94
-94
-39
-82
-99
-98
-44
-45
-112
-140
-95
-102
-94
-87
-26
29
20
40
90
69
15
23
-43
-82
-110
-64
-41
-43
-85
-111
-66
-60
-114
-56
-43
-88
-99
-48
-29
-40
-32
82
330
635
928
1070
840
131
-838
-1617
-1871
-1643
-1189
-714
-367
-202
-107
38
135
144
97
121
147
140
120
171
246
264
269
265
257
196
234
320
389
373
355
388
437
396
384
485
557
563
562
627
680
683
630
658
689
678
674
673
652
530
378
338
370
268
156
141
146
116
38
52
81
12
-36
-19
70
78
19
-4
20
-34
-36
-39
11
25
-23
15
22
22
66
126
145
66
18
22
18
65
90
80
85
86
81
